1.0,-0.11252183,-2.8272037999999995,-3.7738968999999996,-4.3497511,-4.376041000000001,-3.4749863,-2.1814082000000004,-1.8182865000000001,-1.2505218999999999,-0.47749208,-0.36380791,-0.49195659,-0.42185509,-0.30920086,-0.49593869999999995,-0.34211867,-0.35533627,-0.36791303,-0.31650279,-0.41237405,-0.47167181,-0.41345783,-0.36461703,-0.44929829,-0.47141866,-0.42477658,-0.46251673,-0.55247236,-0.47537519,-0.6942,-0.7018681,-0.59381178,-0.66068415,-0.71383066,-0.76980688,-0.67228161,-0.65367605,-0.63940562,-0.55930228,-0.59167032,-0.49322332,-0.46305183,-0.30164382,-0.23273401,-0.12505488,-0.15394314,-0.024357404,-0.065608758,0.034999258,0.06193521900000001,0.07119542,0.12392505,0.10312371,0.22522849,0.12868305,0.30248315,0.25727621,0.19635161,0.17938297,0.24472863,0.34121687,0.32820441,0.40604169,0.44660507,0.42406823,0.48151204,0.4778438,0.62408259,0.57458456,0.59801319,0.5645919,0.607979,0.62063457,0.65625291,0.68474806,0.69427284,0.66558377,0.57579577,0.63813479,0.61491695,0.56908343,0.46857572,0.44281777,0.46827436,0.43249295,0.40795792,0.41862256,0.36253075,0.41095901,0.47166633,0.37216676,0.33787543,0.22140511,0.27399747,0.29866408,0.26356357,0.34256352,0.41950529,0.58660736,0.86062387,1.1733446,1.2581791000000002,1.4337886999999998,1.7005333999999999,1.9990431,2.1253411,1.9932907,1.9322463,1.7974366999999998,1.5222839,1.2511678999999998,0.99873034,0.48372242,0.023132292000000002,-0.19491383,-0.22091729,-0.24373668,-0.25469462,-0.29113555,-0.25649034,-0.22787425,-0.32242276,-0.28928586,-0.31816951,-0.36365359,-0.39345584,-0.26641886,-0.25682316,-0.28869399,-0.16233755,0.16034772,0.79216787,0.93354122,0.79695779,0.57862066,0.25773989999999997,0.22807718,0.12343082,0.92528624,0.19313742
1.0,-1.1008778000000001,-3.9968398,-4.2858426,-4.5065789,-4.0223767,-3.2343676,-1.5661258,-0.99225766,-0.75467971,0.042321173,0.14895093,0.18352707,0.29487608,0.19023267,0.235575,0.25348712,0.2217424,0.050233259,0.17804214,0.13956318,0.046794432999999996,0.04300713900000001,0.10654432,0.012654003,0.0039948539,0.045724179000000004,-0.045999362,-0.072666959,-0.07107790900000001,-0.15386649,-0.22725443,-0.2492697,-0.25348935,-0.33283516,-0.26432996,-0.34582525,-0.31078107,-0.33415978,-0.30617791,-0.17456252,-0.20616017,-0.22447967,-0.048683931,-0.019621159,0.094805186,0.11678639,0.18518592,0.23052577,0.13802707,0.24442554,0.27169477,0.25900331,0.26920166,0.12706463,0.20207339,0.25598343,0.15311526,0.21021583,0.19108187,0.19092702,0.21051006,0.20710764,0.20488835,0.20086474,0.34691963,0.34800190000000003,0.25453726,0.33197465,0.35669029999999996,0.34992982,0.43037963,0.46750163,0.48606309,0.4031884,0.47895569,0.39739177,0.46412003,0.45179539,0.36136121,0.3798309,0.34278528,0.39910656,0.38750840000000003,0.25570346,0.28403408,0.28499257,0.25010809,0.17303626,0.14942257,0.14168499999999998,0.22226096,0.17284705,0.15077932,0.17656601,0.28094204,0.48993901,0.66088884,0.8931933000000001,1.0269972,1.2023937,1.5574096000000002,1.8084276999999997,2.1643459,2.0707467,1.9036136000000001,1.7644552,1.5077694,1.2934277,0.89456215,0.57801575,0.24434305,-0.28644345,-0.51588134,-0.73270694,-0.83246547,-0.80331806,-0.83625248,-0.77786456,-0.77475301,-0.73340394,-0.72138631,-0.83209517,-0.71198159,-0.7518673,-0.7577195999999999,-0.85311967,-0.76698841,-0.68816064,-0.51992349,0.039406169,0.56032676,0.53835583,0.65688079,0.78748958,0.72404623,0.55578372,0.47633335,0.77381971,1.1196209,-1.4362499
1.0,-0.56708802,-2.5934502,-3.8742297,-4.5840949,-4.1874487,-3.1514617,-1.7429401999999998,-1.4906584999999999,-1.1835803,-0.39422869,-0.28289676,-0.35692576,-0.28729745,-0.39948890000000004,-0.47324409,-0.37904758,-0.39903903,-0.17859449,-0.33952226,-0.49844722,-0.33725108,-0.42547978,-0.42395228,-0.46317045,-0.49325315,-0.54974899,-0.52983109,-0.53093478,-0.5023649,-0.41736768,-0.52634573,-0.47100496,-0.67678428,-0.89861193,-0.61057104,-0.5301643,-0.76567438,-0.58193724,-0.53784761,-0.55638598,-0.43802347,-0.43624802,-0.40011375,-0.13498651,-0.23934677,-0.12024439,-0.0019714041,0.28500048,0.31564573,0.10736401,0.10952148,0.15807843,0.29189779,0.26129450000000004,0.18840714,0.14065136,0.26336542,0.28720706,0.31431725,0.17794238,0.13829008,0.32106868,0.45816774,0.25191615,0.26135293,0.27748753,0.29879325,0.45907535,0.41914662,0.52050892,0.53776119,0.60321071,0.47563399,0.52169287,0.73524831,0.72954106,0.71852334,0.49843316,0.54544098,0.60482668,0.52129639,0.39438062,0.40502023,0.59756305,0.53113004,0.3776509,0.46770093,0.45756933,0.34111609,0.40791318,0.45912699,0.40393661,0.29819120000000005,0.46110053,0.6646591,0.58775722,0.70132474,0.91720459,1.2479873,1.5055678999999997,1.6401054,1.8109878000000001,2.1853978,2.2629848999999997,2.0529202,1.8904880000000002,1.793033,1.5647844,1.2346188999999999,0.90030201,0.55195714,0.25822163,-0.12858699999999998,-0.09258528699999999,-0.16860627,-0.4959888,-0.39503448,-0.32823831,-0.44813804,-0.26823009,-0.45641485,-0.35786694,-0.31750833,-0.43411223,-0.54920348,-0.32461549,-0.26808235,-0.22038421,-0.11742905,0.61405916,1.2848254,0.88607336,0.5314524,0.31137684,-0.021918959,-0.71368344,-0.53219671,0.32109663,0.90422673,-0.42179659
1.0,0.49047253,-1.9144071,-3.6163638,-4.3188235,-4.2680158,-3.8811104,-2.9932802000000005,-1.6711314,-1.3338845,-0.96562916,-0.18331859,-0.10165662,-0.27387437,-0.12781761,-0.19598345,-0.21352292,-0.17647269,-0.1569316,-0.14917231,-0.18150997,-0.18007406,-0.24615133,-0.27425986,-0.14095962,-0.27744877,-0.38254906,-0.31193709,-0.36009264,-0.40596818,-0.57143343,-0.52410561,-0.53788646,-0.60677754,-0.66144617,-0.68337478,-0.74668256,-0.63566206,-0.62523095,-0.54009375,-0.67499495,-0.65394896,-0.56691641,-0.52404493,-0.41471114,-0.38778691,-0.28443735,-0.07274462,-0.16012546,-0.092159535,0.067164899,0.081472141,0.056181748,0.024692229,0.07439508,0.15288791,0.091033246,0.11015952,0.11727766,0.11383231,0.14180793,0.27149224,0.24974277,0.19760783,0.24393891,0.38653837,0.30001951,0.30980097,0.34466985,0.38970986,0.44285015,0.43342958,0.54871006,0.52503659,0.52197499,0.62395373,0.5491593000000001,0.6691888,0.62992818,0.53957342,0.59928297,0.49785318,0.63809316,0.61173698,0.49190824,0.57394864,0.51624467,0.57262973,0.48459064,0.37438176,0.46177251,0.41466066,0.37163879,0.44516957,0.48416962,0.55606057,0.65872426,0.86115788,1.0163973,1.135606,1.2169729999999999,1.5530785,1.772155,2.0007688000000003,1.9250032,1.898426,1.7209525,1.5017111,1.4224917,1.0232255,0.77634127,0.50442626,0.056381865,-0.23316061,-0.40638829,-0.32752800000000004,-0.46086800000000006,-0.40253556,-0.34575164,-0.35420649,-0.43995884,-0.42532593,-0.43978873,-0.45183526,-0.39592642,-0.44876235,-0.39178907,-0.37630746,-0.46106907,-0.25352442,0.21300588,0.4911732,0.35081636,0.49911056,0.60034499,0.8420694,0.95207354,0.99013318,1.0867984,1.403011,-0.38356426
1.0,0.80023202,-0.87425189,-2.3847612999999996,-3.9732924,-4.3382241,-3.8024222,-2.5345096000000003,-1.7834233,-1.5944504,-0.75319899,-0.29810663,-0.42892797,-0.49135079,-0.36130424,-0.33929554,-0.32495154,-0.29011333,-0.36305106,-0.52568383,-0.59742301,-0.57552317,-0.56750306,-0.50455484,-0.61840616,-0.68281354,-0.74384873,-0.81558784,-0.82690193,-0.78237433,-0.92946196,-0.99967167,-1.0609695,-1.0078773,-1.0287349000000001,-1.1226293,-1.0286499,-1.0465146,-1.0633723999999998,-1.1224228,-0.98324201,-0.85586525,-0.791266,-0.58875425,-0.51830558,-0.39729838,-0.35433285,-0.20742492,-0.08826601699999999,-0.16873361,-0.067592085,-0.032772281,0.07189947099999999,0.081485179,0.067225257,0.13271969,0.07024093299999999,0.10043175,0.15041753,0.10988654,0.14886026,0.20874762,0.22823622,0.27366422,0.29952441,0.32706231,0.24231412,0.38610522,0.41908722,0.43971785,0.48895381,0.54171511,0.57386922,0.63355476,0.41167103,0.44091729,0.5887054,0.53086502,0.55896452,0.60687423,0.61472869,0.53777156,0.59929423,0.64046303,0.56839906,0.54471048,0.55795891,0.53776149,0.47229245,0.46659561,0.63441689,0.42517487,0.42077721,0.44052297,0.36102802,0.35929943,0.32136632,0.42132549,0.50512195,0.67748866,0.90869284,0.98223031,1.1553635,1.3362539,1.6275343999999998,1.7175938999999998,1.6964865000000002,1.7416856,1.674078,1.5469278,1.3317385,1.1101682,0.92221037,0.52177665,0.15485176,-0.12386069999999999,-0.20299778,-0.24795602,-0.21912177,-0.21469520000000003,-0.31921472,-0.19859713,-0.15161786,-0.12959259,-0.074938934,-0.19680704,-0.17479482,-0.20883265,-0.21075375,-0.10048537,0.19744621,0.966606,1.1488838,0.95843425,1.0590254,1.3716823,1.2773918,0.96030393,0.97101956,1.6143923999999998,1.4214563
1.0,-1.5076736000000002,-3.57455,-4.4780109,-4.4082752,-3.3212415,-2.1051715,-1.4810482,-1.3013622,-0.49823959999999995,-0.28692829999999997,-0.39003094,-0.26384158,-0.31802419,-0.18591558,-0.26978996,-0.32224541,-0.30925306,-0.39110135,-0.3032594,-0.31929186,-0.40791759,-0.42157915,-0.48138035,-0.44751848,-0.5248503999999999,-0.46911847,-0.58260667,-0.67903585,-0.65205179,-0.84685281,-0.76668159,-0.73514832,-0.78846458,-0.85127649,-0.83700984,-0.84350094,-0.82704168,-0.87806084,-0.75509458,-0.80992101,-0.67941539,-0.58341796,-0.45742032,-0.37778498,-0.36062856,-0.23172648,-0.2368416,-0.047710649,-0.052632422000000005,-0.074354922,-0.094408878,-0.082684152,0.0067543086,-0.08292519400000001,-0.061498973,0.021666852,-0.04082262,0.038088286,0.04111276,-0.10716567,0.034701332,0.08570380400000001,0.12185632,0.08889131,0.18567768,0.22990726,0.18320411,0.28684534,0.27956195,0.4185915,0.39460935,0.42764032,0.44484387,0.46829876,0.51542459,0.63629527,0.63325173,0.64466005,0.62754545,0.53004067,0.4928233,0.47920823,0.41335998,0.47562381,0.43649354,0.40684174,0.4433003,0.31768387,0.36132070000000005,0.3610005,0.24142577,0.31811500000000004,0.32515109999999997,0.47830471,0.47607975,0.5320627,0.79548456,0.9451693999999999,1.104937,1.290653,1.4892172,1.7553005000000002,1.9609181,2.0424366000000003,1.902829,1.9028747,1.7580745,1.4257819999999999,1.2102201000000001,0.92839739,0.64126402,0.17552516,-0.10691014,-0.13204268,-0.16583570000000003,-0.098570541,-0.26602195,-0.23729389999999997,-0.13768778,-0.10067464,-0.10749888,-0.2103621,-0.13010391,-0.10763115,-0.16114587,-0.10131627,-0.095255496,-0.069172156,0.15487779,0.69565622,1.2149308,1.0890684,0.98336855,1.0141238000000001,0.9526287,0.749326,1.0070757,1.6349896000000002,1.4933655000000001,-0.78313438
1.0,-0.297161,-2.7666348999999997,-4.1021848,-4.5896691,-4.2193569,-3.6504434,-2.3005176,-1.2939171,-1.0656583,-0.4905204000000001,0.050751439,-0.07664738900000001,-0.094646854,-0.15817964,-0.068691701,-0.14083211,-0.069176949,-0.13427557,-0.059198867,-0.13137923,-0.18120811,-0.21596475,-0.21755404,-0.25406003,-0.33124688,-0.30492329,-0.27379440000000005,-0.34793484,-0.38742898,-0.4040032,-0.42504802,-0.50769997,-0.58216786,-0.53291699,-0.6378729999999999,-0.65593804,-0.54965323,-0.68673176,-0.58303665,-0.63651154,-0.62084931,-0.468289,-0.42352427,-0.32470491,-0.26358651,-0.12755785,0.011174656000000002,0.024380947000000004,0.08477279,0.059935601,0.16447101,0.16221370000000002,0.12599133,0.14362743,0.078258906,0.17851919,0.12659749,0.17504434,0.1694566,0.29969735,0.24249451,0.29716945,0.23840226,0.24915624,0.22551958,0.26718444,0.2366261,0.25742585,0.41650766,0.42657605,0.45903586,0.41659532,0.40912708,0.39677707,0.55726867,0.53500713,0.59007557,0.58584409,0.56813068,0.55498601,0.45756205,0.46270393,0.49946994,0.45014046,0.37201043,0.42852068,0.30460405,0.24412519,0.29406742,0.20671765,0.37245704,0.39460372,0.39444908,0.40425396,0.45989803,0.67724204,0.81142429,0.88952757,1.1303855,1.2852143,1.6523743999999998,1.8393372,1.9485002,1.9406907,1.8161015999999999,1.7273154,1.5512273,1.2119247,1.1334151000000001,0.74591889,0.36093266,-0.12851839,-0.39421797,-0.43660141,-0.50647651,-0.45514709999999997,-0.45786634,-0.54529921,-0.50609683,-0.37652870000000005,-0.45780449,-0.49545976,-0.45869326,-0.33281149,-0.41033407,-0.40651848,-0.33723175,-0.38647852,-0.082580102,0.22031610000000001,0.59497827,0.58177878,0.68440603,0.91165083,0.97948323,1.0534583999999998,0.97478703,1.1104073,1.2881653999999998,-0.82338562
1.0,0.44676853,-1.5073973999999999,-3.1874679,-4.5074621,-4.604200700000001,-3.636115,-2.3116038,-1.5977275,-1.3624498,-0.66921633,-0.17339277,-0.20511622,-0.23078667,-0.17712137,-0.23850955,-0.20507877,-0.23054363,-0.20915931,-0.29293956,-0.25506852,-0.2539899,-0.35197992,-0.42773929,-0.46594769999999996,-0.46028596,-0.4750621,-0.44974621,-0.56228003,-0.5327810000000001,-0.63579716,-0.63658771,-0.749548,-0.80678463,-0.69629187,-0.85528234,-0.8962553,-0.90567196,-0.90845622,-0.83008356,-0.83883747,-0.69212508,-0.64576927,-0.48887225,-0.40645909,-0.35637924,-0.22657834,-0.20574481,-0.071802463,-0.066372326,0.0075019777,0.030631738999999998,0.020969858,0.033968155,0.16488977,0.083023926,0.045058956,-0.0047666788,0.12381566,0.10804433,0.07393554299999999,0.11256906,0.055672868,0.12375141,0.22032513,0.23411098,0.32279232,0.21513818,0.33896743,0.33478514,0.32808378,0.51228301,0.49876823,0.60277392,0.65327531,0.68093211,0.72841436,0.68048301,0.6405041,0.6205016999999999,0.65800821,0.71363176,0.6216716,0.48816176,0.45528345,0.42458401,0.50446979,0.42813301,0.45083786,0.44836001,0.38991267,0.39158529,0.34956959,0.41467343,0.47231448,0.56453121,0.73509325,0.79975056,1.1259941999999998,1.1641296,1.2818475,1.5527349,1.6916357,1.8828098000000002,1.760313,1.8258701000000002,1.6193333,1.3949016,1.1327886,0.9283515999999999,0.59884412,0.22924343,-0.14470770000000002,-0.27006863,-0.32319297,-0.34959834,-0.29816321,-0.25184329,-0.29194076,-0.41334591,-0.30745492,-0.33082525,-0.43238918,-0.28993487,-0.32493274,-0.30928759,-0.2525674,-0.28258614,-0.16934497,0.25872903,0.89662717,1.0882033000000002,1.0013058000000001,1.2920592,1.3786665,1.0147645,0.82079301,1.0343879999999999,1.2584334,0.96121472,-0.99947589
1.0,0.08763057699999999,-1.7534903000000002,-3.3044731,-4.7046566,-4.6864151,-3.6118167000000003,-2.2672676,-1.570893,-1.4177903,-0.50078809,-0.22517739,-0.30883362,-0.21473324,-0.21450921,-0.22312107,-0.26233599,-0.2118159,-0.29909881,-0.25995633,-0.31610955,-0.25866848,-0.28714668,-0.36685535,-0.30598032,-0.41670806,-0.40230307,-0.38155409999999995,-0.51989677,-0.52095179,-0.59691915,-0.6507003,-0.67963616,-0.75152681,-0.72522391,-0.83070065,-0.80731727,-0.84838836,-0.74455386,-0.69997298,-0.75435259,-0.62191821,-0.53394237,-0.3965959,-0.22089032,-0.17931625,-0.0094803401,-0.024018025,0.041459691,0.094492517,0.083212059,0.099031316,0.045914252999999995,0.10951946,0.16816199999999998,0.26346944,0.13610056,0.15883825,0.08980313,0.14660419,0.19676887,0.26898346,0.23726297,0.18635578,0.24141723,0.27842589,0.38315578,0.38957693,0.39354878,0.57738569,0.58774864,0.58188293,0.5449169,0.65788513,0.60177743,0.64273411,0.69906231,0.6801103000000001,0.69863975,0.71617522,0.66862611,0.6718265999999999,0.57504464,0.5292125,0.54333826,0.60328119,0.55471386,0.56362046,0.48903431,0.44695034,0.45643246,0.39325248,0.44143912,0.44738863,0.27405506,0.36460866,0.40121863,0.44788969,0.54780929,0.6420901,0.78832807,0.74980141,0.82085218,0.96416033,1.0618841,1.3408601999999998,1.1378081,0.86401264,0.6839801,0.62842387,0.50113433,0.49129218,0.46193736,0.32981245,0.12041510000000001,-0.14196808,-0.19517724,-0.10265211,-0.076308425,-0.11651106,-0.19168563,-0.23429165,-0.16112658,-0.14536342,-0.21218169,-0.13568405,-0.1334405,-0.17007668,-0.035913592,0.33224263,1.0632504999999999,1.575754,1.7090456000000003,2.1429259,2.393528,1.92555,1.0276237,0.57345293,0.19297149,-0.64868286,-2.4410678
1.0,-0.83228111,-1.7003675,-2.2573013,-2.8536712000000004,-2.8533008,-2.7014866,-2.2857261,-1.555512,-1.2666223,-1.085957,-0.69464057,-0.58851692,-0.66246942,-0.76800441,-0.7725505,-0.62105407,-0.61418665,-0.63012434,-0.66957728,-0.68415362,-0.69294243,-0.61130156,-0.64700697,-0.62136212,-0.6410713,-0.65907019,-0.62097711,-0.67492061,-0.66416383,-0.7369427,-0.76923705,-0.69965708,-0.80030165,-0.72742332,-0.75043487,-0.78906542,-0.73295704,-0.76548658,-0.69708867,-0.76728083,-0.71641729,-0.64584327,-0.57317813,-0.5602558000000001,-0.61643357,-0.61431553,-0.55193907,-0.40993954,-0.46597041,-0.42836411,-0.42283947,-0.3713889,-0.39472419,-0.42201833,-0.35485451,-0.40841286,-0.42534175,-0.38702144,-0.40999646,-0.42726131,-0.38690279,-0.37227239,-0.38801449,-0.32093223,-0.36169826,-0.30421592,-0.22082559999999998,-0.26522743,-0.25316306,-0.17678608,-0.18033685,-0.13543422,-0.10218701,-0.069772168,-0.012025853999999999,0.019392818,0.0023502179000000002,0.025684537,0.10619972,0.060628283,0.14100528,0.09862718599999999,0.10026031,0.1249692,0.13151283,0.15842003,0.10196096,0.16902623,0.19830596,0.16513906,0.19785921,0.11946397,0.24410863,0.36000277,0.46532602,0.5042099,0.55611785,0.68718873,0.82299787,0.92351214,1.0769364,1.1586477,1.1558893,1.1376925,1.0217585999999999,0.91858098,0.83113319,0.68050602,0.54029633,0.46392539,0.13576907,0.040805901,0.055551077000000004,0.018917608,0.1489734,0.39533782,0.77973296,0.94139313,1.0007652,0.9859304,0.97372193,1.0344785,1.0622646999999998,1.0609783000000002,1.1161974,1.2243507,1.4212402,1.6446545,2.0071813,2.1185986,2.0283038,2.1105037999999996,2.2036678,2.2275443999999998,2.1717334,2.0459377,2.1263716,2.1268518,1.6792986,0.96581366
1.0,0.08443012800000001,-3.1903071,-4.686175,-4.5594833,-4.0879723,-2.6188591,-1.7605895,-1.5929641,-0.56911653,-0.1303995,-0.17370458,-0.15454113,-0.11002092,-0.099078691,-0.12750212,-0.15563878,-0.16613496,-0.18039026,-0.11864333,-0.14853266,-0.22084811,-0.21329672,-0.30026262,-0.34072202,-0.41811977,-0.51138155,-0.51300763,-0.60834007,-0.69274586,-0.73708018,-0.76917735,-0.71278713,-0.83424775,-0.81326841,-0.89117252,-0.88461246,-0.79474086,-0.80278306,-0.80424269,-0.76484136,-0.72056788,-0.61615484,-0.52870277,-0.3580067,-0.29460302,-0.24713024,-0.18558663,-0.16121218,-0.15045335,-0.05726509900000001,-0.0071218149,0.018179982,0.045173465999999995,0.08690097699999999,0.025782646,0.082907602,0.067584025,0.13455151,0.25097694,0.22403714,0.2117415,0.14528316,0.24036970000000002,0.27144822,0.19709405,0.35852835,0.45131703,0.40618248,0.54828199,0.51869113,0.55756468,0.61620058,0.55313175,0.59117333,0.61090031,0.53363841,0.51353788,0.6156324000000001,0.47098399,0.45231736,0.4216438,0.48208225,0.37153944,0.38604997,0.39589425,0.38188301,0.32636596,0.34629094,0.22860941,0.2733952,0.32381313,0.23135448,0.24341118,0.30025892,0.23570462,0.21689355,0.26646861,0.28661239,0.55197245,0.7436647,1.1209808,1.2565289,1.3506048000000002,1.5030465,1.9050613,1.977696,1.7310648999999998,1.6800087,1.4572778999999998,1.304503,1.1445094,0.75396576,0.3395384,-0.116375,-0.29537289,-0.24483602,-0.32682085,-0.21511799999999998,-0.34200912,-0.41663854,-0.27606039,-0.26073745,-0.23416539,-0.2129201,-0.19000441,-0.19854207,-0.14229553,-0.082819151,-0.073201588,0.005962665600000001,0.46716454,1.1522791000000001,1.271808,1.190796,1.1807378000000002,1.058195,0.98257725,0.87377195,1.6267068999999998,-0.020783418999999997
1.0,-0.0078191379,-2.3367567000000005,-3.527643,-4.3262444,-3.8904137999999997,-2.9460007000000004,-1.9224567,-1.6705387999999999,-1.3031111000000002,-0.29907967,-0.27366841,-0.27928163,-0.2855121,-0.28919989,-0.29263189,-0.39760935,-0.40128027,-0.44610812,-0.46326401,-0.39617077,-0.31596354,-0.37036618,-0.52714926,-0.58197651,-0.62449313,-0.5527842,-0.62293266,-0.68911027,-0.65794047,-0.76140667,-0.73041856,-0.76516833,-0.85597892,-1.0090543,-1.0606607,-1.0671751,-1.090252,-1.0909388,-1.0669016000000002,-1.0828626000000001,-1.0821855,-0.98674608,-0.9368936,-0.81903706,-0.6858503,-0.6245824000000001,-0.49029342,-0.42600697,-0.36034912,-0.20807361,-0.12508695,-0.18817969,-0.11813875,-0.11355795,-0.14616953,-0.091184183,-0.046443318,-0.0041551965000000005,0.006803061,0.0099330391,-0.019665082,-0.040473591,0.052610775,0.026297585,0.023167188,0.11511491,0.15657944,0.19955413,0.17143918,0.22585370000000002,0.31608261,0.37923683,0.37006024,0.41175447,0.46197749,0.54320326,0.54880024,0.48250766,0.57314352,0.52836526,0.51934147,0.47618857,0.46593179,0.43017034,0.45440471,0.43137952,0.41159179,0.45023345,0.42072954,0.35379033,0.42603056,0.3832093,0.36046275,0.39338516,0.38357026,0.35661533,0.51977247,0.55465908,0.61016699,0.73042397,0.95537319,1.1374761999999998,1.2442845,1.4987643999999998,1.6533845,1.7163956000000002,1.6937523999999997,1.6150577,1.6204593,1.4205858999999998,1.1758989,0.91863064,0.57623684,0.26696355,0.077792235,0.050024788,0.12544997,0.21135015,0.15532258,0.15655616,0.10462987,0.16696775,0.19685621,0.24186926,0.21510645,0.20137985,0.25710179,0.22749674,0.39845371,0.81057843,1.5422583,1.5267386,1.426058,1.5891262,1.5648448999999998,1.3347122,1.1652084999999999,0.95443408,1.4702110000000002,0.39306323
1.0,-1.0743015,-3.2593996,-4.1259793,-4.3424462,-3.9225581,-3.1901557,-1.9460608,-1.5547739999999999,-1.2963524,-0.56500449,-0.10577056,-0.11813282,-0.16329874,-0.16615776,-0.14780036,-0.13748339,-0.1031855,-0.13264396,-0.097150159,-0.088237275,-0.21294090000000002,-0.23469869,-0.28181156,-0.28953936,-0.32886033,-0.37907232,-0.45602242,-0.39615841,-0.44200544,-0.45891429,-0.52002548,-0.58236633,-0.63331585,-0.70967404,-0.64087024,-0.64152322,-0.63568098,-0.52959221,-0.52781548,-0.4515052,-0.3963212,-0.40267291,-0.29558793,-0.22151419,-0.13692163,-0.038955079,-0.016756396,0.12403993,0.21481016,0.21177552,0.28344253,0.18402967,0.14159571,0.15523323,0.22338072,0.14542889,0.14192719,0.15251023,0.17836236,0.13376138,0.21736044,0.21937523,0.17338218,0.22879701,0.23978375,0.29735952,0.30262429,0.38894263,0.42777253,0.44051275,0.47315826,0.53077965,0.52585974,0.55169954,0.61346969,0.65024299,0.54995,0.5818943,0.5553134,0.47195946,0.48755566,0.49623549999999994,0.46439761,0.40633694,0.37818354,0.37418393,0.39217362,0.3505685,0.40287261,0.38801493,0.25528492,0.28871606,0.35533813,0.40729064,0.58248244,0.55011461,0.7379141,0.93778764,1.153718,1.4648005,1.8358526000000002,2.1568953,2.16781,2.0665876,1.8171366999999998,1.6657929,1.4019038000000001,1.1256864,0.64539177,0.27767517,-0.15344000000000002,-0.38774715,-0.44750766,-0.47512055,-0.46610713,-0.46673156,-0.50941984,-0.55514884,-0.47078248,-0.47006473,-0.47874456,-0.44130873,-0.42388426,-0.46550235,-0.42916721,-0.31364066,-0.35887253,-0.22405015,0.16157304,0.77736237,0.85651474,0.93106427,1.1292417,1.0235497,0.76771337,0.61342569,0.69624715,1.176666,1.1316334,-1.0949732
1.0,4.0581274,2.0878441999999997,0.4231153,-2.0588691000000003,-3.2376915,-4.5267529,-3.8361572999999995,-1.9750063000000002,-0.78335306,-0.38103834,0.89943175,1.5067458999999999,1.1748641000000002,1.2346958000000001,1.1736633,1.2208137,1.2611729,1.2908708,1.2858577,1.1378515,0.90326781,0.96899861,0.89832916,0.72589558,0.75098858,0.65091167,0.50533326,0.39965642,0.22806365,0.37147076,0.05259877,0.016930755,-0.29166129,-0.17993871,-0.28575471,-0.52406259,-0.54779474,-0.56231929,-0.59153508,-0.79944254,-0.71204342,-0.64138635,-0.65578025,-0.51877396,-0.40917534,-0.41203873,-0.21307428,0.029181096,0.11180697,0.056617945999999995,0.26037196,0.16303214,0.092609966,0.0079472141,0.068280563,0.21874927,0.32833516,0.36364284,0.21674527,0.18037912,0.20337981,0.040300362,0.27022074,0.15252781,0.2082961,0.32871803,0.10004339,0.34049918,0.27333933,0.39224732,0.37920467,0.4715419,0.42477109,0.42450129999999997,0.59528928,0.47449468,0.62632946,0.50017107,0.49472156,0.42461325,0.50887024,0.44181459999999995,0.36925967,0.28237625,0.27723809,0.26045847,-0.00047767913000000003,-0.027998341,-0.2154715,0.049414319000000005,0.0046144103999999995,-0.20377006,-0.24665436,-0.34642498,-0.088971099,-0.42668836,-0.37817546,-0.22328332,-0.34046309999999996,-0.46756212,-0.26919317,-0.26093301,-0.32823634,-0.26777948,-0.41086656,-0.010632832,0.46953500000000004,1.0310431999999998,0.94631964,0.79969563,0.47050645,0.37471716,0.12258893,0.23883239,0.34120839,-0.11777447,-0.55829682,-1.1025884,-1.2562895,-1.1822768,-1.2107513,-0.97311758,-1.2009763,-1.2717045,-1.1749427,-1.0787343999999999,-1.0606461,-1.279274,-1.1854129999999998,-0.99547326,-0.8901655,-0.10400893,1.5046435,1.3920341,1.3311414,1.1975315,1.0928611000000001,-0.12932652,-1.0382589,-1.4898633
1.0,-0.76160326,-2.9212432999999995,-3.8943152999999997,-4.384961,-4.0682246,-3.5111043,-2.5328155,-1.6873964,-1.3980988,-0.89928768,-0.53766749,-0.48197629999999997,-0.5333800999999999,-0.52246989,-0.49307977,-0.53051716,-0.44779559,-0.46459623,-0.38506357,-0.48942808,-0.42492148,-0.44130039,-0.37539759,-0.45228681,-0.40672606,-0.41976808,-0.47985054,-0.45911045,-0.45683208,-0.48010485,-0.58779941,-0.57426024,-0.55424721,-0.62051811,-0.5948176,-0.61261337,-0.64766504,-0.56023832,-0.63740623,-0.63460819,-0.51851928,-0.50397191,-0.36189107,-0.29904866,-0.26717888,-0.19419251,-0.19240208,-0.071317489,-0.053523598,-0.029566763,0.047020617,0.0040209855,0.055046918,0.04336091,0.023562547000000003,0.019542722,0.013656264,0.08404907699999999,0.090896122,0.12223264,0.1628499,0.082302086,0.23661865,0.18365295,0.18977741,0.20949712,0.20935465,0.20315573,0.33178146,0.3224094,0.38638533,0.40866058,0.38929727,0.53045532,0.54518428,0.58389835,0.63601033,0.69719605,0.58756363,0.64901772,0.63839173,0.59604228,0.55777869,0.54128097,0.55901731,0.53776883,0.52052714,0.44365812,0.54493639,0.52231248,0.5076893,0.49369375,0.48639967,0.47171256,0.50220469,0.68602434,0.81336346,0.92577458,1.0300284,1.1044336000000001,1.3856685,1.5812144,1.7173166000000002,1.7044098,1.6705234,1.5924118999999999,1.4331079,1.2461458,1.0478742,0.80275863,0.50358214,0.31896599,-0.012007384,-0.042840598,-0.10770912,-0.16100313,-0.20358106,-0.14437556,-0.14597041,-0.20486453,-0.1647142,-0.17971524,-0.17907795,-0.15822417,-0.12270101,-0.10996763,-0.08473280400000001,-0.04736188,0.21757117,0.58297649,1.0009154,1.0731004,1.2425013,1.4495869,1.3797496999999999,1.0681166000000002,0.74606108,0.84904613,1.1621124,-0.38125681
1.0,-0.18649962,-2.6824877999999996,-4.0168823,-4.2181222,-3.8416655,-2.9940592999999995,-1.9739403999999998,-1.6397073,-1.2912066999999998,-0.56676936,-0.32797059,-0.35881305,-0.36747683,-0.26171947,-0.43112527,-0.44179395,-0.35334990000000005,-0.37600121,-0.36462327,-0.38663497,-0.41732614,-0.46416289,-0.46274808,-0.54337028,-0.54589006,-0.54595426,-0.59512355,-0.69263085,-0.6992366999999999,-0.71662131,-0.6611285,-0.76789989,-0.81352439,-0.8734148000000002,-0.9560521999999999,-0.87202803,-0.87619337,-0.81070489,-0.79011728,-0.71594341,-0.59079026,-0.53481418,-0.47671320000000006,-0.37184064,-0.24637294,-0.13094889,-0.12053496,0.014479258,0.011071589,0.0022752286,0.11652929,0.084693509,0.1283251,0.1601575,0.10118565,0.14420806,0.13636224,0.16388596,0.20674542,0.29980544,0.30896572,0.30677655,0.34639645,0.31397849,0.38596690000000006,0.5131817,0.45898087,0.56655463,0.58107131,0.58295677,0.69183783,0.67918912,0.67279958,0.67036759,0.6827621,0.64401916,0.60561895,0.70029255,0.64454818,0.51677329,0.59514554,0.68509769,0.5734656,0.52972662,0.52142569,0.53106979,0.38848935,0.48497031,0.38670994,0.37442045,0.43744564,0.34410178,0.37218879,0.37646740000000006,0.31480166,0.3627134,0.59456603,0.75787651,0.91904515,1.1127328,1.278646,1.3747003999999998,1.7065354,1.8956841,1.8727832999999998,1.7721659,1.6967053,1.3856256,1.2328678,0.9505372,0.57927666,0.2959571,-0.20178549,-0.30348223,-0.38762337,-0.36700021,-0.37480505,-0.47913017,-0.38322503,-0.39308814,-0.46479868,-0.41347572,-0.40945921,-0.46814299,-0.41410923,-0.37715362,-0.33561887,-0.36524952,-0.13930581,0.1456822,0.80874553,0.78128882,0.72518731,1.0682644,1.1297018,0.940981,1.0080436,1.5642571,2.1514756,0.18005396
1.0,0.80393944,-1.1069098999999998,-2.8541072999999995,-3.8986872999999997,-4.1531318,-3.9971558,-3.2908875,-2.1893642000000004,-1.5822713,-1.4197418,-0.77623822,-0.36466834,-0.35131917,-0.28209846,-0.32809502,-0.24445476,-0.27204293,-0.25295563,-0.21698265,-0.29821598,-0.30900757,-0.31775712,-0.37635874,-0.40969467,-0.37896253,-0.43216817,-0.47256245,-0.45051965,-0.47193918,-0.50832158,-0.63612133,-0.57613836,-0.64785973,-0.65471828,-0.66189443,-0.64606584,-0.57512668,-0.58149884,-0.56127511,-0.56830862,-0.45494409,-0.43891843,-0.32415361,-0.21697821,-0.22141165,-0.14777626,-0.063389856,0.022359195,-0.053922652,0.036558661,0.062544658,0.01289971,0.17091905,0.023649326000000002,-0.00090073401,0.046446377999999996,0.06893682799999999,0.022108195,0.094244559,0.085704019,0.16306879999999999,0.16418196,0.13652682,0.18954010000000002,0.24475174,0.34320768,0.2558181,0.31011176,0.3933497,0.34045738,0.47296407,0.55601857,0.63041308,0.6022866,0.53315645,0.59669968,0.76151275,0.60544583,0.73387369,0.69851521,0.67935095,0.61438734,0.59744178,0.5448784000000001,0.52520109,0.52317415,0.48486465,0.49053208,0.45309773,0.37501758,0.37100799,0.48005072,0.42530487,0.50881377,0.68847679,0.83558126,0.9802153,1.1705983999999998,1.3240908000000002,1.5856125,1.7161151999999997,1.9341456000000001,1.9404373,1.8565973999999998,1.7979553,1.6118864,1.4324763,1.1167874,0.86855153,0.48389514,0.10958938,-0.1271405,-0.31815938,-0.3904573,-0.23712713,-0.33023956,-0.36411214,-0.3923664,-0.40263892,-0.35864349,-0.42113622,-0.32743019,-0.38767076,-0.47892311,-0.42738391,-0.33768145,-0.27741627,-0.24917941,0.12690831,0.7574026999999999,0.85381342,0.87943277,1.0265218,1.0746765,0.8469405999999999,0.57368995,0.85798633,1.2024158,0.61324167,-1.6556465
1.0,-0.92021269,-2.4495095,-3.1920276000000003,-3.8751634,-4.1807232,-3.8921772000000003,-3.1562282,-2.0225688,-1.5201388999999998,-1.1702225,-0.59172108,-0.39647627,-0.41005285,-0.44187569,-0.41732916,-0.42305770000000004,-0.31273006,-0.30414413,-0.30352531,-0.34484548,-0.3214973,-0.22451271,-0.3555104,-0.24303292,-0.31106690000000004,-0.39434553,-0.34914971,-0.33717006,-0.42500299999999996,-0.33987118,-0.31567764,-0.37498894,-0.37463538,-0.46719398,-0.38971277,-0.33762768,-0.4256848,-0.25257294,-0.34635428,-0.22780434,-0.18190239,-0.17013342,-0.075184146,-0.055117972,0.057978477,-0.030611937000000002,0.093540119,0.10650889,0.18256499,0.17340756,0.15274786,0.17927537,0.12103317,0.16948828,0.10872204,0.16637585,0.14490429999999999,0.20499389,0.19213428,0.11082794,0.16703457,0.14103825,0.17080344,0.22293486,0.26776037,0.31807691,0.26640339,0.32930595,0.37284243,0.36188937,0.42514223,0.53365866,0.4146215999999999,0.53391196,0.51904957,0.53886307,0.59249776,0.53310578,0.54039423,0.64966984,0.61520821,0.52459282,0.46795155,0.52266134,0.53384419,0.50274413,0.49962214,0.38647544,0.38632762,0.49503317,0.42799711,0.40711516,0.47528623,0.49998032,0.69165004,0.84566192,1.0553762,1.1936459,1.2772052,1.4663071,1.6674008000000002,1.9156015,1.9280549,1.8639853,1.8670685000000002,1.6940862,1.4754697,1.3196558999999999,1.0656747,0.89766616,0.67712457,0.24714371,0.049676504,-0.086538702,-0.13490496,-0.17308643,-0.17088711,-0.10809801,-0.16925271,-0.15074175,-0.09864077,-0.095393694,-0.17334648,-0.17934131,-0.20345963,-0.16022208,-0.11141973,-0.03391909,0.27296036,0.80906609,1.4302895,1.3466755,0.99819255,0.23454213,-0.62493364,-1.1341003,-1.2635558999999998,-0.96427199,-0.37083214,-1.0404894
1.0,2.7446026000000003,-0.10192395,-2.8516809,-3.9749087,-3.9954373,-3.7196635000000002,-2.6809699,-1.441639,-1.1668635,-0.65717801,0.19802989,0.32560922,0.24802392,0.21410455,0.23123470000000002,0.15602696,0.18260884,-0.017426683999999998,0.080068624,0.17351764,-0.005452094300000001,0.08809177,-0.06066651,-0.061423634000000005,-0.23860138,-0.11370367,-0.20938474,-0.28177691,-0.2254406,-0.40003596,-0.34852623,-0.54806559,-0.63013946,-0.59565712,-0.67086368,-0.66044288,-0.67935651,-0.55530684,-0.6161939999999999,-0.62244661,-0.46646307,-0.44755099,-0.42212896,-0.42526753,-0.2661539,-0.10979095,-0.090907536,0.040707874,-0.015153917,0.098671804,0.15602186,0.09898997,0.10749287,0.11013242,0.13155461,0.17084545,0.19566172,0.19983166,0.21016696,0.23489276,0.20217599,0.26879019,0.26429342,0.27906444,0.38569496,0.34877103,0.38672994,0.40572022,0.40813245,0.50926479,0.44136309,0.58979889,0.59175812,0.56674437,0.56212416,0.44679032,0.53317478,0.48217058,0.45638518,0.41738415,0.41448074,0.401348,0.30965594,0.28735340000000004,0.25443549,0.24627087,0.19433849,0.12471424,0.20298548,0.11132273,0.19316855,0.10161629,0.12920063,0.2176154,0.28361275,0.41857961,0.58901054,0.83914654,1.0475469000000002,1.2788146999999999,1.5889406000000001,1.9124875,2.1550011000000002,1.9325243000000003,1.7873729,1.7160542,1.3623743000000001,1.0701441,0.68076116,0.4013946,0.092853713,-0.48515569999999997,-0.76519087,-0.81784633,-0.81884361,-0.75210186,-0.8481648999999999,-0.89043512,-0.82548985,-0.78801503,-0.96854557,-0.88286201,-0.77959626,-0.91587261,-0.96062332,-0.8737007999999999,-0.90314839,-0.8208519000000001,-0.49385555,0.21113998,0.5036087,0.45144067,0.80277864,0.88392204,0.8953199000000001,0.84012611,1.3051815,2.1146868999999997,1.5902703999999999,-1.9219276
1.0,2.4028692000000005,2.0367189999999997,0.34090237,-1.2864358999999999,-3.3014551,-4.2245689,-3.3983068,-2.0793023,-1.5979055,-1.5279736000000002,-0.075556017,0.15018446,-0.018965012,0.15663253,0.083514438,0.05450557599999999,0.06397801,-0.01048702,-0.074013727,-0.10897484,-0.026492112999999998,-0.23756575,-0.21214982,-0.27712782,-0.37903349,-0.32254435,-0.48713548,-0.65077272,-0.70534842,-0.70664499,-0.92590132,-0.8662099,-0.99841442,-1.126847,-1.3522409,-1.4065604,-1.3555018,-1.457718,-1.4997178,-1.5850003000000001,-1.4679456,-1.372172,-1.3730991000000001,-1.2589068,-1.0889847,-0.92281284,-0.9173121,-0.6498835999999999,-0.57360531,-0.35838517,-0.36869867,-0.32218233,-0.2347721,-0.38168321,-0.22551155,-0.15688768,-0.10989784,-0.045662064,0.057007987,-0.0044050464,0.24535639999999997,0.086985038,0.1154461,0.22758341,0.20257055,0.26671901,0.14088738,0.37303201,0.45446408,0.42525272,0.60888085,0.40595386,0.56530587,0.51118929,0.60684592,0.54951025,0.50974454,0.78727949,0.61515125,0.53754415,0.58858151,0.58357135,0.57533841,0.479062,0.51443781,0.58001535,0.46947286,0.38714849,0.42924352,0.46601572,0.40643673,0.32298924,0.2049005,0.17274564,0.36359224,0.19390179,0.1845098,0.18137323,0.2599665,0.24193444,0.42826528,0.23032876,0.11846871,0.17731718,0.44046951,0.44224902,0.63561819,1.1076544,1.4457986,1.4092977,1.1878451,1.1434058999999999,0.89119047,0.71810525,0.90452113,0.83995397,0.49346968,0.12504912,-0.30902264,-0.32715519,-0.26980512,-0.21065767,-0.22993566,-0.22410193,-0.21592104,-0.23121885,-0.10172133,-0.12929552,0.0073680101,-0.034076312000000004,0.11813815,0.41608709,1.1149831000000001,0.89916395,1.1545248,1.9873284,2.4287317,2.6139867999999997,1.9628195,1.7691982
1.0,-1.3622631,-3.3530235,-3.9756571000000003,-4.2282265,-3.7996727,-3.2181189999999997,-2.049291,-1.5296725,-1.2974544,-0.83059008,-0.42436503,-0.47203471,-0.51516888,-0.40258721,-0.43984377,-0.40805466,-0.34322968,-0.38626221,-0.44859756,-0.44478779,-0.46136538,-0.35765502,-0.45114956,-0.45308283,-0.41227691,-0.45107308,-0.3903585,-0.46497817,-0.45665371,-0.61793431,-0.62550533,-0.59844355,-0.67672941,-0.66020892,-0.65055473,-0.62648659,-0.57630822,-0.61395077,-0.54016171,-0.47888403,-0.48626422,-0.4357446,-0.40404034,-0.29283292,-0.17227963,-0.055059062,-0.039811028,-0.021250817,0.021225857999999997,0.032141501,0.0055192555,0.078736856,0.057119395999999996,-0.011383556999999999,0.062648614,0.018703334,0.06669040700000001,0.036431097,0.06735419999999999,0.1152615,0.042019669,0.12611329,0.031845278,-0.0050344263,0.25914945,0.19144553,0.28882797,0.208862,0.27987512,0.28161752,0.3040742,0.36857037,0.36852886,0.48424656,0.45195308,0.53652412,0.44951282,0.508908,0.59790349,0.65801959,0.61776177,0.62312973,0.61290676,0.5606624,0.56296018,0.55307739,0.50082801,0.53918461,0.41686391,0.50496427,0.48994675,0.51285718,0.55113786,0.6061755999999999,0.71442683,0.84235569,0.99378893,1.1099169,1.1483134,1.3754203,1.6109722,1.7430714,1.7895363000000002,1.6545782,1.5758173999999998,1.4343887,1.3748985,1.063426,0.86959095,0.58586802,0.26028238,0.13745371,0.034019054,-0.019212965,0.026099143999999998,-0.078532135,-0.065535432,-6.0685538e-05,-0.0007038809299999999,-0.10944542,-0.082693936,-0.07276241,-0.02545923,0.018727637,0.0017723385999999998,0.054476172999999996,0.010278866,0.23725283,0.76055281,1.0643457,1.1205281999999999,1.3098261,1.468151,1.2678399,0.87240877,0.63855492,0.91927041,0.71614672,-0.35122193,-2.2346511000000002
1.0,1.9354139,-0.54876161,-2.3433933,-3.3785997,-4.2434162,-4.1082127,-3.044811,-1.6656151999999997,-1.4281688999999997,-1.0200895,-0.11958602,0.19645346,0.11236011,0.136799,0.1831146,0.11482262,0.13970984,0.06416077099999999,-0.07642476200000001,0.11964848,0.047738227,-0.08808512,-0.16747814,-0.08782876699999999,-0.22899225,-0.19830621,-0.21673233,-0.29271651,-0.3773239,-0.4581482,-0.58024211,-0.59794755,-0.55775502,-0.67927402,-0.71476452,-0.6567193,-0.74916196,-0.74145114,-0.77261964,-0.79419029,-0.62048718,-0.52279613,-0.38184607,-0.42528796,-0.46277407,-0.29762258,-0.14937218,-0.089397028,-0.06753848700000001,-0.035564051,0.012312978,0.007929043299999999,0.046252931,-0.0015729175,0.17067388,0.14817795,0.15326900000000002,0.13371903,0.079181531,0.23618725,0.18735324,0.19535187,0.25764088,0.19105036,0.21327837,0.23697164,0.32188255,0.30056747,0.34675211,0.38094928,0.42678163,0.54205084,0.52227832,0.32599425,0.37182427,0.39498241,0.42673111,0.42251283,0.40811466,0.48273231,0.33924359,0.25099616,0.31871522,0.32999429,0.43766247,0.28029477,0.36635703,0.20082264,0.25016819,0.20604908,0.2372067,0.25328282,0.11064083,0.16059341,0.1884015,0.29655201,0.64633559,0.79985963,1.0738657,1.0875983,1.2857696,1.5006405,1.8099441000000003,2.2429331,2.1416854,1.9899798,1.7838311000000002,1.7000464,1.4599993,1.1057346000000001,0.86617063,0.15670857,-0.37163408,-0.51717482,-0.57012049,-0.71142397,-0.64748321,-0.80954028,-0.75343851,-0.76874808,-0.75939516,-0.75445924,-0.68913011,-0.74411385,-0.72209755,-0.77188463,-0.71977463,-0.70657003,-0.56007946,-0.1669868,0.37100183,0.54841757,0.93738971,1.2248676,1.2933998,1.1836716999999999,1.0941214,1.5880921000000001,1.8711056000000001,-1.2487458
1.0,-1.8627470000000002,-3.2036327,-3.6341531000000002,-4.1693744,-3.8880809000000003,-3.2758404,-2.1004304,-1.6623014999999999,-1.4397476999999999,-0.75266185,-0.44549375,-0.45413288,-0.4761388,-0.50550685,-0.49158515,-0.34366539,-0.40914391,-0.4219994000000001,-0.44125915,-0.5194886,-0.33920061,-0.3773344,-0.35424806,-0.35669867,-0.49676656,-0.49409601,-0.36678391,-0.36253913,-0.44196693,-0.32685485,-0.34194356,-0.37759439,-0.40221446,-0.34010565,-0.41440617,-0.3196923,-0.27434111,-0.35593264,-0.27299992,-0.20626303,-0.15637955,-0.1435254,-0.11830015,-0.23490256,-0.10315541,-0.00878327,0.049864226,-0.028025459,0.034272462000000004,0.057320583,-0.016121596999999998,-0.00208756,0.00059489001,-0.0038257248,0.046449214,-0.0055238788,-0.010946276000000001,0.017766163,-0.0020078429,-0.081315893,-0.014966008999999999,-0.023964874,-0.012726303000000001,-0.029349474,0.08624824699999999,0.065663412,-0.058436044000000006,0.16384351,0.27792196,0.17409647,0.19389366,0.27812106,0.38732614,0.41718472,0.38385835,0.48625233,0.48641375,0.49536625,0.58442818,0.62554179,0.66185102,0.68364795,0.68090778,0.59428431,0.5372284,0.56968507,0.57739664,0.53179604,0.59463077,0.6207136999999999,0.51427007,0.47037098,0.49686007,0.58112647,0.5307189999999999,0.81476495,1.0114023,1.0836272,1.3344553,1.4147444,1.6723683999999996,1.9719198,2.1296932999999996,2.1805321,2.0759711,1.8886251,1.7297516,1.4535628,1.3362973999999999,1.0414771,0.88400103,0.58579182,0.11928472,0.050663186,-0.044869993,-0.090907327,-0.043910199999999996,0.05193996099999999,-0.22551987,-0.19840684,-0.042490291,-0.11682405,-0.12270507,-0.21550777,-0.11633065,-0.096284751,-0.013903083,0.09577470699999999,0.21762874,0.75541792,1.2690534,1.2328221000000001,0.90270118,0.37600261,-0.31828068,-0.67593442,-0.84912217,-0.78116739,-0.302293,-0.61002273
1.0,-0.99857184,-2.8897247999999998,-3.3877792,-3.5106386,-2.9968963,-2.2804124,-1.7001959999999998,-1.5611073999999998,-1.0948267,-0.92235086,-0.93785499,-0.8784832,-0.88296422,-0.88192933,-0.90866771,-0.82307862,-0.85934335,-0.8821804,-0.87391177,-0.88044505,-0.80895567,-0.88683291,-0.92602309,-0.90180834,-0.92022015,-0.92535499,-0.88331768,-0.9317091999999999,-0.99367519,-0.91165229,-0.96074319,-0.99347461,-1.0409567,-1.0739878,-1.008234,-1.0061943000000002,-1.0304824000000001,-0.95906716,-0.8906351999999998,-0.8781486,-0.77507971,-0.6870353,-0.66475871,-0.5953013,-0.50909821,-0.42626407,-0.44355598,-0.39454227,-0.41683459999999994,-0.38282671,-0.28068833,-0.28925165,-0.25998195,-0.27150640000000004,-0.24758514,-0.15726946,-0.23002316,-0.13092003,-0.15092381,-0.11227460000000002,-0.06653084299999999,-0.068022442,-0.025683045,-0.064316853,0.073704771,0.082570633,0.067146488,0.15832731,0.20989139999999998,0.22255959,0.28371631,0.26865946,0.24374031,0.33358540000000003,0.36023081,0.42749618,0.41436887,0.39189828,0.40406149999999996,0.49267965,0.45348147,0.4041807,0.51681136,0.45885891,0.46972151,0.4750004,0.46926579,0.45131178,0.5001399999999999,0.52043581,0.49295983,0.53082938,0.56105319,0.5511731,0.65178524,0.6418098000000001,0.73581919,0.87732018,0.97527227,1.0435107,1.1718094,1.3105026000000002,1.3792612,1.4075101,1.4066040000000002,1.3662523000000002,1.2347971000000002,1.229052,1.1408462,1.0293558,0.86943579,0.70750348,0.62642132,0.57351075,0.57377744,0.56218941,0.59570127,0.5855604999999999,0.64276998,0.63787059,0.58150792,0.62787035,0.63706215,0.66031076,0.73367111,0.74197698,0.73846322,0.89510572,1.1456674999999998,1.3816389,1.4203026,1.3371892,1.3936423999999998,1.3733062,1.3121559999999999,1.2463692,1.4304958,1.6350927,1.5209621000000002,0.65421129
1.0,-0.28834122,-2.2725454,-3.6660708,-4.2827374,-3.7242411,-2.8432282000000004,-1.8749167000000002,-1.5312511999999998,-1.1943883999999998,-0.54127413,-0.39303124,-0.43113007,-0.38249414,-0.38552709999999996,-0.39781294,-0.38000766,-0.44965858,-0.38291185,-0.40528287,-0.44655153,-0.41801188,-0.52242672,-0.58660627,-0.54189127,-0.52803501,-0.630458,-0.67773875,-0.78250762,-0.75699531,-0.80657163,-0.81540982,-0.94057025,-0.92872992,-0.8500484,-1.0483438,-1.0571464,-0.99891405,-0.8496265,-0.81930128,-0.94959214,-0.73403551,-0.69334927,-0.69371939,-0.57494089,-0.52024087,-0.37474237,-0.27194483,-0.23045706,-0.16232497,-0.12311519,-0.12781058,-0.038097814,0.025011559,0.027463935,-0.033556657999999996,-0.063766352,0.019662478,0.0036088755,0.074925119,0.05902338,0.054363708,0.055622915,0.19214859,0.18491272,0.19466048,0.24265443,0.19634445,0.25615634,0.29341576,0.35688955,0.3795301,0.3641632,0.44100451,0.51529898,0.54605908,0.58395612,0.56825452,0.56723801,0.52694035,0.45524263,0.55270319,0.54003814,0.4184192,0.43464404,0.38302869,0.47567602,0.55452503,0.44338743,0.44678474,0.33347381,0.30718029,0.42123391,0.37668933,0.44819125,0.5904967,0.59361885,0.73164423,0.92258976,1.0506714,1.1494726999999998,1.385669,1.5852643999999998,2.0063573,1.8395933999999998,1.7441506000000002,1.6606667000000002,1.4390026000000002,1.3449961000000001,1.2078937,0.95911902,0.57248896,0.28502133,0.019181261,-0.16476017,-0.17150074,-0.21064068,-0.19101575,-0.19450168,-0.22492012,-0.081659856,-0.14759527,-0.19635249,-0.27733297,-0.18988301,-0.13429032,-0.26244434,-0.19728138,-0.080188709,0.09240872800000001,0.65875227,1.1474335,1.16232,1.2117657,1.5263299,1.7705727999999998,1.6156545,1.2932948,1.2431311999999999,1.7227841,1.2959242
1.0,0.53974315,0.66577827,-1.2755868000000001,-2.8466725,-3.4999203000000003,-4.382825599999999,-3.9606595,-2.6571292,-1.9283256000000002,-1.6057499,-0.49802437,-0.15959131,-0.26229433,-0.21580660000000002,-0.35805719,-0.12267895,-0.19591795,-0.23573009,-0.25887652,-0.28534302,-0.27224294,-0.20864832,-0.35890051,-0.33653484,-0.30833428,-0.47299037,-0.46103638,-0.6779566999999999,-0.5569024,-0.63148847,-0.64732156,-0.62686692,-0.74758454,-0.81791668,-0.87850089,-1.0072364999999999,-0.88886279,-0.91875823,-0.88380344,-0.91614426,-0.78574266,-0.74282516,-0.77872712,-0.52738876,-0.45069637,-0.33725634,-0.44836277,-0.20223055,-0.052745098,0.050060651,0.03123348,0.019030958,0.07731160599999999,0.15275405,0.22407072,0.18285287,0.17402101,0.21317111,0.19662193,0.30386597,0.32717282,0.24945462,0.35215131,0.28454264,0.41482284,0.36379539,0.37091726,0.44168846,0.5293475000000001,0.51479212,0.59539387,0.61620006,0.6227228,0.67989023,0.69780189,0.66438999,0.60376282,0.58132698,0.54369895,0.60798227,0.5750026999999999,0.5818646,0.45329898,0.54875176,0.46008439,0.40377508,0.43668718,0.30319839,0.52220955,0.42011605,0.40439069,0.42606907,0.3229988,0.38252697,0.37488573,0.24600978,0.37031417,0.33645748,0.31923742,0.28739721,0.44056391,0.5605358,0.6725918000000001,0.98308367,1.250987,1.2321225,1.6037983,2.0192474,2.3689359,2.4217417,2.3249546000000003,2.0540157999999997,1.7484411,1.469141,0.95481296,0.25551384,-0.25678169,-0.31245957,-0.46307532,-0.35810362,-0.36192758,-0.31974422,-0.42845150000000004,-0.29101471,-0.41659440000000003,-0.45404297,-0.37163922,-0.36891769,-0.29577989,-0.46945451,-0.32955958,-0.23512916,0.57473238,1.0586076000000002,0.88663354,1.2658479,0.89577687,-0.015879698,-0.70528326,0.037302077
1.0,-1.1812943999999999,-2.3030416000000002,-2.8690724,-3.9477131,-4.501725700000001,-4.172636,-2.8633193,-1.8925258999999999,-1.6618945999999999,-0.90185366,-0.42296226,-0.35216932,-0.31962272,-0.3624531,-0.32147097,-0.31601848,-0.30239989,-0.29278875,-0.31629042,-0.37401649,-0.40876531,-0.37756213,-0.45878602,-0.32972626,-0.35042867,-0.3905706,-0.37661534,-0.49349652,-0.53217646,-0.52083634,-0.5268396,-0.58827527,-0.70819185,-0.58291442,-0.67049856,-0.6965283,-0.60066302,-0.66001072,-0.55897566,-0.5096429,-0.48079228,-0.43953457,-0.23169533,-0.27486931,-0.13580341,-0.045989237,-0.037749591,-0.024957385,0.041773124,0.094939229,0.036344124,0.079783582,-0.010793479,-0.020771365,0.062471702999999996,0.052274774,0.034358127999999995,0.076343822,0.11036141,0.15902515,0.15518926,0.08453036400000001,0.14621472,0.18893519,0.17280614,0.22756541,0.34336578,0.35084977,0.37532397,0.50768326,0.52078155,0.50579043,0.62816008,0.60065274,0.61150578,0.76158247,0.72790847,0.71032176,0.72544749,0.72428615,0.69950391,0.63137928,0.65440274,0.64315478,0.55239524,0.55395403,0.49972895,0.48831783,0.5446444,0.46806798,0.45689787,0.34836897,0.39454985,0.37838279,0.44911324,0.44913234,0.47119333,0.60283921,0.72805079,0.95745114,0.98208292,1.194129,1.3256549,1.5597034,1.8182718,1.7785442,1.7723479,1.4862491000000002,1.2911061000000001,1.1543136999999999,0.94550311,0.70445071,0.37119435,0.12273796,-0.16343212,-0.23602729,-0.25884412,-0.21934264,-0.23623563,-0.26963146,-0.27091142,-0.24565979,-0.24686439999999998,-0.28418314,-0.2929094,-0.24888735,-0.23173258,-0.21391020000000002,-0.13051102,-0.0025714433999999998,0.52720359,1.3251665000000001,1.3793144,1.5430673000000001,1.7885210999999999,1.5066106000000001,0.77410683,-0.13012066,-0.28587388,-0.45100638
1.0,1.5319341,0.92006083,-0.49019514,-2.0132361,-2.8349715,-3.4859332999999997,-3.2619857000000003,-2.3102226000000003,-1.7047485,-1.6784919999999999,-1.0249631,-0.46375571,-0.40598829999999997,-0.47395269,-0.5444704,-0.54019877,-0.38263593,-0.52568892,-0.52663255,-0.48389023,-0.52939911,-0.60754668,-0.53614193,-0.55977808,-0.63062482,-0.64403399,-0.71965775,-0.74621216,-0.80129161,-0.83125147,-0.93636305,-0.99338465,-1.0413056,-0.99045376,-1.0151654,-1.1421223999999999,-1.0958733,-1.1345867,-1.2256366,-1.2343389,-1.032637,-1.0616449,-0.96872443,-0.89106257,-0.89706557,-0.69918268,-0.56970454,-0.48672667,-0.43495531,-0.44529865,-0.33163052,-0.40143314,-0.25576798,-0.29564955,-0.1822898,-0.26271806,-0.20728578,-0.14138264,-0.2307739,-0.2701736,-0.11682102,-0.066774103,-0.085408819,-0.075672403,-0.10625849,-0.056186868,-0.056800564000000005,0.032967904,0.07974603,0.066111301,0.11430137,0.14449089999999998,0.20035268,0.19316619,0.21511008,0.19237102,0.21973675,0.30044423,0.35348397,0.37657857,0.28097237,0.29525002,0.32323472,0.30642285,0.19566208,0.33184921,0.31566277,0.22959631,0.27106936,0.17288257,0.23228515,0.27666619,0.27941326,0.25461311,0.25710105,0.23943788,0.25534277,0.31346393,0.32302693,0.5482446999999999,0.66351336,0.93341219,1.11337,1.2649504999999999,1.3222861000000001,1.5413299999999999,1.9338962,2.1014057999999998,2.1077607000000005,1.8906618000000002,1.7563078,1.4807247,1.2897951,1.1097743,0.79368808,0.39240792,0.21936851,0.15716344,0.18283827,0.15403899,0.18804016,0.24156420000000003,0.16335092,0.16571961,0.21379007,0.27231647,0.29743529,0.29761111,0.34612919999999997,0.37220553,0.5237021,1.0161069,1.2796178999999999,1.3614617,1.7812398,1.9776585,2.2260395,1.6367638999999998,1.8501207999999998,1.9345383000000003
1.0,-3.5278987999999996,-5.117621400000001,-4.634885400000001,-4.226482099999999,-3.1004607999999996,-1.8977234,-1.3063794,-0.95246355,-0.22899584,-0.09676276699999999,-0.10039939,-0.14531562,-0.22673238,-0.20863061,-0.11870038,-0.12326716,-0.11270093,-0.09283317199999999,-0.11836132,-0.16458403,-0.20724292,-0.2354725,-0.20329389,-0.31138667,-0.20927968,-0.33625295,-0.32384776,-0.30343790000000004,-0.46315128,-0.46810003,-0.52522517,-0.51709173,-0.49090168,-0.51979725,-0.48299719999999996,-0.52502126,-0.47864142,-0.44987616,-0.37106151,-0.38265832,-0.3149348,-0.27689817,-0.19122278,-0.063774495,0.010648972,0.12829405,0.11960891,0.05618445,0.1240261,0.029956025,0.12554694,0.068790394,0.11145748,0.13217555,0.13028399999999998,0.25444573,0.14509803,0.11610713,0.18401278,0.17098627,0.21093189,0.16077589,0.19382443,0.24373129,0.16759281,0.23573399,0.21708743,0.36530803,0.40437415,0.49726146,0.47388264,0.49958306,0.57845532,0.55124725,0.53082538,0.51126302,0.56318346,0.49229337,0.53199966,0.39049468,0.41995837,0.45222366,0.4677941,0.34265229,0.34846811,0.36427926,0.45477018,0.35674341,0.25977291,0.20937706,0.32958390000000004,0.35632333,0.34212987,0.45238258,0.38016142,0.57838519,0.75379566,0.94876976,1.1072944,1.2456671000000001,1.4418087,1.6185204,1.9077949,1.7563464,1.7514610000000002,1.6080901,1.5092518999999998,1.1400909,1.0280192,0.76389657,0.30182115,0.09750033300000001,-0.28198831,-0.3168763,-0.30189454,-0.42390934,-0.35410328,-0.46057341,-0.42164963,-0.37022628,-0.36738084,-0.33985916,-0.49681088,-0.43025647,-0.37415261,-0.32147476,-0.33527052,-0.25728506,-0.033733438,0.35022026,0.68510854,0.75605137,0.96795751,0.97546498,0.91487281,0.64002228,0.51170596,0.52346601,0.80512981,-0.91239468
1.0,-0.77586665,-3.4141412000000004,-4.0897041,-4.0645668,-4.0340122,-3.6645482000000005,-2.4578752,-1.2954523999999998,-1.2498051000000001,-0.83788186,-0.25690192,-0.22376786,-0.31944246,-0.24578289,-0.2911414,-0.31241420000000003,-0.28363454,-0.24817583,-0.24672239,-0.31293595,-0.27232791,-0.28380233,-0.36983097,-0.32725332,-0.32802597,-0.3559002,-0.31206165,-0.43861477,-0.41395306,-0.42674374,-0.40046796,-0.52517868,-0.48744114,-0.48894671,-0.52939568,-0.56711283,-0.61573041,-0.45669982,-0.45863346,-0.49072884,-0.45091905,-0.39283559999999995,-0.25424995,-0.25761573,-0.19182119,-0.13785891,-0.10702689,-0.069024033,-0.023093408,-0.025411365,0.046335772000000004,0.022994897,-0.04654788,-0.039304581,-0.094578251,-0.012033971000000001,-0.085144908,-0.0604547,0.021065185,0.013211655,0.055273358,-0.0027854257,0.069090761,0.14216315,0.095263275,0.16341318,0.18068393,0.19201906,0.20937459,0.26570768,0.31318670000000004,0.23153509,0.2881695,0.37111119,0.38302611,0.42409379,0.37787192,0.33522007,0.46049148,0.40768661,0.27994632,0.42587356,0.43725158,0.51838351,0.42398827,0.35165145,0.35484225,0.37693674,0.28507763,0.41116385,0.38251967,0.28237869,0.44319780000000003,0.46151259,0.61937302,0.70372827,0.93037059,1.1643901,1.1758863000000002,1.3012435,1.5957675,1.7844234,1.7908843999999997,1.7106919999999999,1.6985941000000002,1.5589452,1.3676941999999999,1.2237559999999998,0.95100455,0.61745581,0.22432246,-0.0018565748999999998,-0.12858619,-0.19396516,-0.0084248823,-0.058990739,-0.10641843,0.049975619000000006,-0.10216298,-0.026576278999999998,-0.046325257,-0.1208893,-0.010477954,-0.079140053,-0.1053885,-0.0063806107999999995,0.0530283,0.19052557,0.34287154,0.86578374,1.1419171000000001,1.3063473,1.4653673,1.3870171999999998,1.3206688,0.88216926,0.96623098,1.0659013000000002,0.44012228,-1.9802592
1.0,-0.03594174,-0.27819632,-0.38375438,-0.3727249,-0.13322346,-0.27698825,-0.42173103,-0.34688683,-0.17848876,-0.23167341,-0.33658328,-0.36185316,-0.39472756,-0.27869383,-0.43282635,-0.47154981,-0.25778203,-0.2212151,-0.50988523,-0.61322237,-0.52728633,-0.42310865,-0.35329614,-0.43583758,-0.47465857,-0.56081595,-0.6298408000000001,-0.32000241,-0.16477071,-0.12716885,-0.2542404,-0.38167703,-0.18103816,-0.07914654900000001,0.0055061941,0.17496344,0.056961658,0.15747088,0.19106629,0.1036615,0.08136127900000001,-0.00043422405,0.083364445,0.26657818,0.19222838,0.068638075,-0.039912439,-0.010877671,0.084594449,0.11324985,0.31539678,0.048520299,-0.057953595999999996,0.13753469,0.28042693,0.096707309,0.016027691,0.08250228,0.25014234,0.41530302,0.51669519,0.57008307,0.52925349,0.62179339,0.65384684,0.68988785,0.66758986,0.76422407,0.75545274,0.61065201,0.53165018,0.56035374,0.48819073,0.61981582,0.68931228,0.51892443,0.50861831,0.53729969,0.83561964,1.0504299,1.0520813,1.0422228,1.32396,1.5725561000000001,1.836701,2.1411136,2.0524633000000003,1.9747949,1.9915372,1.7877543999999999,1.3901971000000002,1.0999058000000002,0.82331555,0.69379178,0.37016199,0.10351141,-0.15145786,-0.30922505,-0.3255634,-0.29672621,-0.42837449,-0.27819081,-0.31271101,-0.36018885,-0.33416367,-0.25912905,-0.07319610900000001,-0.29171138,-0.49868986,-0.41435682,-0.11853838,0.33292736,0.86438664,1.1097002,0.88892184,0.93933787,0.99555397,0.8067605999999999,0.51315745,0.10589958,0.47615629,0.68152015,-0.1672576,-1.6829375,-2.7097641,-3.4355172,-4.2796184,-4.2900157,-3.6475983999999997,-2.2284106,-1.6046026000000002,-1.4703591,-0.69271005,-0.47049683,-0.45414559,-0.34407644,-0.41212822,-0.41674938,-0.24737942,-0.34628536
1.0,-1.3132285,-1.9628832999999999,-0.84626258,-1.4005536,-1.3682153000000001,-1.6259806,-1.3467619,-0.97069563,-0.29910008,-0.01579098,0.28759577,0.44026139,0.51403801,0.80093535,0.87091838,0.92139713,1.0110805,1.0452318,1.1832578,1.2097476999999999,1.311628,1.3760636999999998,1.393931,1.3324992,1.5412806000000001,1.5794173999999999,1.5161993999999999,1.5829408999999999,1.5380828000000002,1.6238002,1.6252494,1.5421308,1.5419687,1.5073045,1.4092127,1.2950178999999997,1.1165366,1.0592253,1.0624858999999998,0.93777282,0.66971788,0.50058299,0.50105465,0.47631491,0.46703381,0.46638023,0.36759587,0.40084873,0.39112101,0.48143856,0.5459974,0.45298527,0.48543593,0.50091323,0.39955962,0.40103803,0.47223301,0.42087129,0.35209144,0.40504492,0.36221199,0.19937785,0.24458334,0.12712121,0.15831568,0.17077731,0.22411919,0.14766888,0.077334996,0.08308718,0.12218481,0.15703363,0.12523404,0.11804396,0.066736873,-0.00072671436,-0.0037090883000000002,-0.11378313,0.00366831,-0.01684882,0.043134565,0.0076624084,-0.023449371,-0.043156340999999994,-0.073778098,-0.11633432,-0.10318980000000001,-0.11669772,-0.16597833,-0.23050498,-0.27657196,-0.19884823,-0.25443444,-0.28521273,-0.23016571,-0.19552775,-0.29783595,-0.31881543,-0.35075548,-0.37272823,-0.36130256,-0.41187502,-0.35185959999999994,-0.36031775,-0.37256816,-0.29931491,-0.19609028,-0.076184845,0.19939178,0.45701588,0.69059228,0.95615584,0.92102302,0.8538653,0.67936159,0.34334548,0.039061087,-0.23579707,-0.69348205,-1.1577509,-1.3786883,-1.6035594,-1.5251421,-1.4711638,-1.5116522,-1.6084322,-1.64717,-1.6966136000000003,-1.7331055,-1.6869595000000002,-1.741845,-1.4790493999999998,-0.69129949,-0.44632661,-0.78760618,-1.7799741000000002,-2.4583453,-3.057529,-2.4051707,-2.7488784
1.0,-2.0956639,-4.182035,-4.3009498,-4.247350900000001,-3.8246241999999997,-2.9645634,-1.7487328000000002,-1.449283,-1.0171378,-0.39008677,-0.29072688,-0.26052276,-0.23750703,-0.26549275,-0.19828583,-0.23660331,-0.20368769,-0.10487981,-0.21819631,-0.22008855,-0.18128266,-0.18361951,-0.20982728,-0.24887323,-0.31902542,-0.17285097,-0.26864919,-0.33467946,-0.28681933,-0.41692742,-0.38194531,-0.44086993,-0.52672186,-0.43093113,-0.50947227,-0.49597668,-0.39524380000000003,-0.39171115,-0.36536185,-0.36099169999999997,-0.30909023,-0.21331618,-0.12583758,-0.021390648999999998,-0.00018562938,0.15293745,0.1049435,0.14463593,0.16495015,0.24759814,0.14809613,0.16675634,0.13713657,0.13129427,0.10536733,0.11716509,0.14491129,0.22432627,0.20799413,0.18391872,0.30754224,0.21131498,0.2117446,0.24568629,0.29402975,0.27200059,0.29116733,0.41455202,0.44032737,0.5027237,0.44864757,0.50139391,0.49333595,0.46928612,0.5929762,0.43152913,0.60919444,0.6225175000000001,0.58681271,0.53970837,0.47911694,0.44646713,0.49923793,0.4937601,0.41344355,0.41231733,0.41506048,0.29492111,0.34250948,0.40793198,0.33023249,0.46374836,0.40314981,0.42510081,0.55648479,0.70465059,0.82816734,1.0691053,1.0935423,1.3437518,1.5543795,1.8183417000000002,1.8572514999999998,1.849837,1.8316143,1.5866426000000002,1.3741176000000002,1.1134232,0.79445511,0.47582202,0.14329084,-0.16554804,-0.27541546,-0.40622216,-0.44700204,-0.43605087,-0.48267886,-0.48197522,-0.42068640000000007,-0.55994179,-0.62854377,-0.48475057,-0.38145165,-0.40206931,-0.48160981,-0.44844459999999997,-0.41002531,-0.33670383,-0.067116417,0.38936092,0.81561905,0.85431636,1.0248215,1.1621181999999999,0.99027401,0.71492711,0.54892886,0.82619628,0.82778817,-1.4804925
1.0,-0.65713662,-1.4969218,-2.0119898999999997,-2.4230953,-2.6757807999999996,-2.6018607000000005,-2.1598373,-1.7090851999999999,-1.688696,-1.4958076999999999,-1.1259194,-1.0565501,-1.0455331,-1.0517573999999998,-1.0651333,-1.048416,-1.0139468,-1.0755721999999999,-1.0589594,-0.9871264000000001,-0.97901217,-0.99743505,-0.97482263,-1.0195988999999999,-0.99205812,-0.94525342,-0.95425021,-0.98097029,-0.96693412,-0.97539749,-0.91961537,-0.92278445,-0.9354831,-0.94447603,-0.97372083,-0.95864742,-0.92900695,-0.89290367,-0.92300977,-0.85828141,-0.82267561,-0.85735523,-0.83722458,-0.74599086,-0.73071174,-0.69663011,-0.63155637,-0.54986399,-0.51378843,-0.46025407,-0.42979258,-0.39054221,-0.33958171,-0.28790892,-0.30171789,-0.32181647,-0.29499983,-0.21417627,-0.20649537,-0.18435398,-0.18402829999999998,-0.12946061,-0.13105613,-0.159019,-0.11915344,-0.029199787,0.022764199,0.058657996,0.029185737000000003,0.05754560400000001,0.07640926,0.10167759,0.17396602,0.19479359,0.21366527,0.24949699,0.25148255,0.24204967,0.30129119,0.31519622,0.29942738,0.36026555,0.37871864,0.36281402,0.4061936,0.42138802,0.40339707,0.45184163,0.45226997,0.43814653,0.47611158,0.52982753,0.47402428,0.46334592,0.49583032,0.57881087,0.57546171,0.5480031999999999,0.66323708,0.79411457,0.85691622,0.91773249,1.1191011999999998,1.2563838999999999,1.368375,1.4669721000000002,1.5243136,1.5556301000000001,1.4772998,1.4991792,1.322247,1.189848,1.0410602,0.8880061,0.79625852,0.77664463,0.80599559,0.79361085,0.79260365,0.86883846,0.83556101,0.88324466,0.91605192,0.9068290000000001,0.9224029,0.91472618,0.95711102,1.0120195,1.076993,1.2008246999999999,1.5447187,1.6901301,1.6016861999999998,1.6080903,1.4758118999999998,1.4250317,1.3926676000000002,1.3749784,1.587308,1.5575253
1.0,1.0066612,-0.7129770999999999,-2.1090847999999998,-3.2562892999999997,-4.0037859,-3.3199763999999994,-2.2244662999999996,-1.8241456999999999,-1.6001011,-0.55259014,-0.37391030000000003,-0.44742468,-0.34219461,-0.40622256,-0.41756929,-0.46513571,-0.41796292,-0.40866813,-0.43360333,-0.50414263,-0.44853792,-0.49157178,-0.5398227,-0.51206043,-0.61953756,-0.65659449,-0.68968956,-0.7080083,-0.83093297,-0.8989634,-1.0342897,-1.1046903000000001,-1.198025,-1.2683603,-1.2505573,-1.2656655,-1.3382758999999997,-1.2544975,-1.2814043,-1.35122,-1.2037743,-1.1771272,-0.96441222,-0.78746019,-0.75133941,-0.61495838,-0.42236376,-0.3557697,-0.36892632,-0.18958694,-0.08735497,-0.1067993,-0.024060782000000003,0.086023327,0.096182184,0.05584959,0.11143703,0.098288066,0.12158504,0.25785483,0.27769920000000003,0.23024446,0.32278443,0.33279007,0.37178320000000004,0.39660805,0.48080728,0.44951196,0.59489562,0.59832728,0.6303593000000001,0.78072763,0.71125791,0.7462930999999999,0.72843059,0.75243547,0.83538614,0.81141918,0.75235914,0.67520638,0.70963329,0.62715045,0.62487548,0.57856255,0.48555178,0.59108421,0.44955476,0.42294888,0.48019564,0.48082884,0.54639171,0.46715638,0.50380302,0.45716534,0.40155583,0.30595947,0.38830788,0.35841219,0.37315242,0.33895939,0.51027136,0.89478111,1.0758611999999999,1.2532434,1.2825729,1.4882262,1.8085845,2.0609236,2.1155949,1.9716631000000002,1.6831639999999999,1.4041757,1.2983274999999999,1.0039463,0.49367566,-0.080993839,-0.24116658,-0.23680335,-0.20696075,-0.30108013,-0.19850304,-0.15594015,-0.24216883,-0.27084712,-0.23878201,-0.17448092,-0.17427278,-0.19337637,-0.26325947,-0.18303922,-0.051285894000000005,0.088748039,0.71794064,0.77113119,0.9227546999999998,1.6828383999999998,1.8072319,1.6421346999999997,0.7774028000000001,1.1701989
1.0,0.30348816,-1.7968884999999999,-3.596764,-4.6180827,-4.1050392,-3.1325418,-2.0192505,-1.6992668999999998,-1.3280903999999998,-0.50738745,-0.23311003,-0.24053034,-0.20217516,-0.22366625,-0.20151393,-0.22774311,-0.19379435,-0.23683051,-0.35325727,-0.32973858,-0.3433155,-0.31320709,-0.41662268,-0.49438313,-0.47179546,-0.52165392,-0.62201846,-0.62049198,-0.66479543,-0.67155879,-0.79031272,-0.83646439,-0.79337559,-0.90850577,-0.89887636,-1.0301765,-0.97946788,-0.99023204,-0.82533645,-0.76894357,-0.7846585,-0.76817829,-0.58584428,-0.50495369,-0.38683873,-0.22703286,-0.17094260000000003,-0.19454888,-0.13051014,-0.09158312199999999,-0.073212875,-0.08343131200000001,-0.02779206,-0.021481551,-0.062410324,0.059280957,0.027505092000000002,-0.02359003,-0.051860983,-0.036831308,0.08071695200000001,0.029480616,0.040966475,0.16436447,0.031342632999999995,0.18373146,0.18402676,0.27952368,0.34521901,0.30478437,0.44162112,0.50705826,0.53495615,0.53556811,0.58960925,0.6013208000000001,0.63313986,0.60217601,0.61877195,0.6002418,0.62314344,0.55908982,0.55388581,0.51728932,0.48322545,0.50214778,0.32438661,0.34439911,0.28434578,0.35189409,0.34036264,0.32246899,0.32694402,0.28283712,0.30063829,0.20407909,0.26974157,0.49914561,0.52550642,0.76900806,1.0248554,1.162039,1.2208872,1.4091726999999998,1.6314473,1.7162755,1.6502655,1.4860197,1.1841308000000001,1.0239299000000002,0.85183116,0.78951446,0.53565185,0.12988319999999998,-0.052806075,-0.13249154,-0.2206066,-0.22989963,-0.20312591,-0.20478751,-0.15267939,-0.26651818,-0.19302679,-0.23096121,-0.14190882,-0.15456918,-0.19960813,-0.12605449,-0.093395315,0.20115343,0.80744803,1.4676771999999998,1.6309924,2.0712313,2.4693982999999995,2.1469709999999997,1.2838119,0.6776251999999999,1.0289664,0.35073325
1.0,-0.83354058,-1.4633151000000002,-2.2679727,-2.8930469,-3.4220443,-3.9661888,-3.3819660000000002,-2.0106879,-1.6993306000000001,-1.4943844,-0.58348293,-0.3743628,-0.50368378,-0.62127772,-0.072646625,0.046094619,-0.52563696,-0.69091485,-0.65256625,-0.46965778,-0.34262635,-0.37346761,-0.45920071,-0.76808763,-0.65399231,-0.62105978,-0.68486953,-0.48202934,-0.46540218,-0.59963525,-0.38478878,-0.25096952,-0.33978651,-0.52715248,-0.81115784,-0.29373431,-0.07212258099999999,-0.33570089,-0.51176596,-0.46750944,-0.029016733,-0.36813391,-0.53274146,-0.48476262,-0.32525817,-0.34540493,-0.38626449,-0.03791348,-0.11792468,-0.31665838,-0.34177542,-0.050585712000000005,0.09064699400000001,-0.021408437000000002,0.045424437000000005,-0.4006518,-0.53662537,-0.22963693,-0.26915502,-0.17794996,-0.11472405,-0.14679337,-0.18661282,-0.19648172,-0.12574968,-0.03582161,0.10879457,0.013489632,-0.0065900179,0.066912545,0.20112873,0.33890247,0.33957814,0.22046921,0.26164641,0.31003811,0.45576245,0.36034813,0.52577722,0.53704402,0.51552617,0.44671591,0.46038645,0.36591022,0.35961370000000004,0.49323751,0.46610206,0.44852941,0.46070048,0.47452859,0.39577957,0.45112120000000006,0.45585988,0.39293569,0.35047972,0.45890525,0.40050876,0.46103572,0.61840674,0.84584295,0.81393201,1.1035641,1.4204946000000003,1.5633771,1.9818238000000001,2.1580291000000003,2.2622342,2.2697721,2.1454828,1.7636766,1.6027409,1.3190525,1.0151368,0.64955902,0.35753240000000003,0.21170762,0.12964191,0.15773882,0.21416123,0.16283604,0.31052072,0.5073217000000001,0.51418476,0.5550968000000001,0.53032927,0.58729527,0.48679646,0.46220497,0.53688887,0.61901485,0.9759085,1.8066891999999999,2.0838682,1.4036605,0.50692178,-0.62905308,-1.3482969,-1.5711591999999999,-1.3197323,-0.40873099
1.0,-0.869182,-2.2065865000000002,-2.9895709,-3.5100354,-3.2893642,-3.0073147999999996,-2.2406109,-1.7115846000000001,-1.80555,-1.4183316000000001,-0.90173395,-0.76825269,-0.87575673,-0.94860332,-0.77489531,-0.82088242,-0.96868294,-0.83526283,-0.86383518,-0.87544557,-0.79902868,-0.80644803,-0.81050205,-0.83383589,-0.75704835,-0.73629747,-0.80626221,-0.88313281,-0.91346623,-0.77745338,-0.85249514,-0.94051653,-0.93280471,-0.88050631,-0.77325364,-0.95864382,-0.91953766,-0.79980003,-0.8343904000000001,-0.85471294,-0.85583099,-0.67216428,-0.66109227,-0.50697806,-0.35539539,-0.42177061,-0.53625163,-0.32596317,-0.31717007,-0.37730566,-0.32989117,-0.17649360000000003,-0.1957094,-0.1604057,-0.14924584,-0.12409144,-0.028446905,0.026180075,-0.15007249,-0.15393779,-0.14604047,-0.021657463,-0.014306005,0.039257439,0.20493539,0.11602464,0.08430410699999999,0.11123894,0.21272998,0.26163798,0.13536919,0.30074526,0.45143944,0.40357213,0.48383784,0.51391024,0.56863865,0.53702278,0.41885194,0.37096142,0.37716016,0.47553953,0.49642491,0.47273509999999996,0.44678285,0.46839683,0.50782288,0.53981375,0.45266186,0.53897268,0.39855023,0.46245577,0.51686294,0.46859871,0.55577636,0.62973144,0.77314843,0.88806691,0.80317658,0.76936946,1.0906305,1.1969698999999998,1.3296435,1.5050152,1.5628844,1.5760815000000001,1.4032697,1.2858207,1.1047245,1.121968,0.95280533,0.78320928,0.6094609999999999,0.34251807,0.40503538,0.45644674,0.50191352,0.52328074,0.43453203,0.43572867,0.58881715,0.55893894,0.36612367,0.41786921,0.62788765,0.68541861,0.59936648,0.61441463,0.7286199000000001,0.87216645,1.1669045,1.2969144,1.2885578000000002,1.5334311,1.5094861000000002,1.3902125,1.3655023000000002,1.3225038,1.8521256000000001,1.5419344
1.0,0.1940386,-2.6269766,-4.094685299999999,-4.530522,-4.1227825,-3.0820611,-1.9064297,-1.6267002000000002,-0.98881683,-0.2625284,-0.35485818,-0.24360805,-0.21174603,-0.26478906,-0.23264451,-0.24389732,-0.30767997,-0.28962471,-0.26859114,-0.27667459,-0.37508493,-0.35752287,-0.48699499999999996,-0.55767708,-0.44317259999999997,-0.54293508,-0.59243604,-0.6002907,-0.62743828,-0.74285958,-0.66799109,-0.85394338,-0.81640358,-0.92950293,-0.92976653,-0.93841109,-0.93204217,-0.94117377,-0.94518245,-0.87573421,-0.7454381,-0.72659819,-0.6679335999999999,-0.39140323,-0.35894004,-0.36369057,-0.24877757,-0.24437095,-0.17974104,-0.13775457,0.024926969,-0.019682223000000002,0.065831627,0.13226511,0.1092153,0.12517479,0.27656715,0.21831138,0.21519164,0.27155052,0.32662434,0.25356447,0.28211582,0.49307158,0.38812612,0.42776252,0.5217755000000001,0.5896693000000001,0.61685294,0.6829980999999999,0.70978146,0.74074667,0.64651648,0.69844508,0.63012831,0.76637419,0.7284455,0.66134137,0.70455108,0.52651392,0.63808952,0.64315976,0.49377402,0.55167319,0.46524968,0.55870597,0.44034169,0.38693191,0.38340207,0.41095372,0.38577956,0.37742051,0.40261455,0.32648720000000003,0.36169450000000003,0.36688041,0.37402358,0.44819118,0.59137108,0.88779852,1.2309698999999998,1.3120343,1.4284373,1.5764141,1.7901006999999998,1.6576839,1.6500183999999998,1.6249761,1.3313129,1.2139498,0.9617319999999999,0.67800119,0.31326698,-0.063885789,-0.19038678,-0.27232209,-0.23693128,-0.22902931,-0.24000958,-0.33611395,-0.21046990000000002,-0.18256512,-0.11599984,-0.17489923,-0.17892008,-0.10488017,-0.090408797,-0.12083461,-0.051125987000000005,0.14008398,0.84172399,1.2706680000000001,1.1135843,1.1221841000000001,0.88618453,0.72436759,0.70664178,0.86761242,1.2951468000000002,-1.2848233
1.0,1.381994,0.36621607,-2.4019983,-4.2293972,-4.9372699,-5.056183900000001,-3.8526331,-2.1658699,-1.9756248,-1.1081356000000002,-0.11463923,-0.19791556,-0.24602237,-0.10414129,-0.046410796,-0.067892614,0.23488257,0.32179348,0.27563529,0.21115321,0.25558825,0.2259627,0.3342047,0.26990682,0.34460541,0.28124644,0.55479254,0.4999322,0.32474916,0.19225441,0.2747678,0.16306141,0.076353115,0.12241184,-0.14146199999999998,-0.21037408,-0.014104558,0.061627422,-0.11164908,-0.072694063,-0.055701079,0.06633863599999999,0.065868034,0.057605889,0.23233759,0.26457152,0.46664347,0.52532594,0.63407284,0.4331724,0.39840851,0.5008044,0.55525392,0.69831644,0.57229014,0.52401516,0.64888858,0.5974668000000001,0.56286817,0.5846361999999999,0.54415541,0.49085373,0.57391471,0.5151486,0.48788316,0.59762703,0.6404152,0.75357241,0.65541997,0.65509987,0.74535054,0.74074953,0.6582024000000001,0.7374126,0.59984443,0.65270407,0.73390524,0.61080117,0.57532655,0.65332316,0.6480746999999999,0.45093375,0.48712753,0.37887817,0.41127997,0.40842992,0.22206699,0.1649612,0.13895889,0.22080683,0.13376541,0.1309494,0.061104875,0.027411737999999998,0.0013073412,0.075516316,-0.014458395,0.025507035,0.042833967,0.13440725,0.041720512,-0.052771846,-0.053965982999999995,0.11094172,0.26175074,0.39416452,0.52321069,0.84624645,1.0149270000000001,0.88103388,0.62336098,0.34329358,0.12654862,0.031103658,0.12691427,-0.023384617000000003,-0.37095866,-0.71593091,-0.87829665,-0.88372397,-1.0540557,-1.0780056,-1.0702878,-1.0086882,-1.1277357,-1.0584954,-0.89273247,-0.83903891,-0.90436231,-1.308129,-1.1405188,-0.54974974,0.28551732,0.60328977,0.9435066999999999,1.1229611000000002,1.2020018,0.62389127,-0.15810707,0.23907783
1.0,0.8601815,-0.1418624,-1.9673778999999998,-2.9888945,-3.8054927000000003,-3.5349361000000004,-2.5727398,-1.9410836999999999,-1.5679288999999998,-0.6666069,-0.39057052,-0.44048619,-0.34772724,-0.33634353,-0.35092696,-0.41944037,-0.42538555,-0.3984287,-0.44930303,-0.49409829,-0.46315078,-0.53909561,-0.66490158,-0.66983643,-0.59577177,-0.70255449,-0.84050179,-0.85796611,-0.94829584,-0.87069314,-1.0515735000000002,-1.1141012,-1.0693648999999998,-1.2264251,-1.1925337999999999,-1.2103399,-1.3302844999999999,-1.2821573999999998,-1.2894278000000001,-1.1037867000000001,-1.0540333999999998,-1.0017426999999999,-1.0318155,-0.86151372,-0.70442083,-0.67167205,-0.52076259,-0.47866859999999994,-0.4298769,-0.27926442,-0.26086462,-0.33511736,-0.1686186,-0.20816881,-0.19304768,-0.18248668,-0.13485653,-0.06782574599999999,-0.028167988999999997,0.041396327999999996,0.046458175,0.09423688300000001,0.090328862,0.22296357,0.37001506,0.43797713,0.3932308,0.34172463,0.45222241,0.50342936,0.52959964,0.57640402,0.63839914,0.65897446,0.51787544,0.55623293,0.51095482,0.59077971,0.55924163,0.54986821,0.4812327,0.47062567,0.44019704,0.3897952,0.36795257,0.37277516,0.3310922,0.38640313,0.34362028,0.30251866,0.42750609,0.33790794,0.39377182,0.31425529,0.46301850000000006,0.35810994,0.30632635,0.42741326,0.36588975,0.45020852,0.47055251,0.55274383,0.92625158,1.1423205,1.2735146000000002,1.4464056,1.5736994,1.9466013999999998,2.2666614,2.1760928,2.0371013,1.8584269,1.7444297999999998,1.5470201000000001,1.2637535,0.74392715,0.19274446,-0.0051230623999999995,-0.0045447824,-0.0044780955,-0.13646034,0.041174638,-0.011509561000000001,0.056577010999999996,0.04686069599999999,0.04455934,0.08130467,0.015736356,0.11642984,0.12444127,0.17417639999999998,0.38120375,1.014294,1.5735464,1.26404,1.4922338,1.6145787,1.3942715,0.59271243,0.57393333
1.0,-0.50162131,-1.0885841,-1.9397493000000001,-3.8884577000000005,-3.9511297999999995,-3.7056505,-2.8737202999999996,-1.9517083999999998,-1.150802,-0.88886891,-0.4511115,-0.12966496,-0.062786364,-0.15013052,-0.30613358,-0.60497228,-0.78008477,-0.68535122,-0.64817681,-0.64254805,-0.56671865,-0.49930340000000006,-0.45560725,-0.49735603,-0.4784027,-0.43096976,-0.34893201,-0.38120151,-0.34435793,-0.28939968,-0.35077581,-0.34159018,-0.35891507,-0.35520397,-0.425725,-0.39905546,-0.45446879,-0.43383121,-0.49751684,-0.59484332,-0.60672001,-0.61033218,-0.59790306,-0.5917939999999999,-0.5578858,-0.52713078,-0.54754834,-0.47495141,-0.41804966,-0.37977675,-0.33453388,-0.30220087,-0.29337014,-0.33207313,-0.27696819,-0.26287147,-0.25468554,-0.27884699999999996,-0.24986102,-0.32466922,-0.30076046,-0.37536839,-0.28638718,-0.30998513,-0.32541378,-0.29184997,-0.26465758,-0.2709228,-0.23601605,-0.22861508,-0.2254585,-0.20612425,-0.22388702,-0.21851504,-0.14480835,-0.11981557,-0.14737146,-0.03794437,-0.085062979,-0.046366625999999994,-0.033447392,-0.0048851905,0.014000756000000001,0.026848102000000002,0.053281903,0.062308393,0.072059595,0.10268872,0.13076669999999999,0.14254294,0.21226921,0.23912392,0.24077240000000003,0.25707283,0.30228775,0.29489505,0.23629385,0.31484162,0.39681995,0.40840375,0.46335550000000003,0.45886471,0.52610784,0.54410442,0.53603264,0.5562474000000001,0.6370206,0.67599322,0.76511945,0.9740357,1.1480812,1.3256004,1.5865326000000002,1.7036074,1.7635083999999999,1.7330211,1.5713397,1.4124094999999999,1.2507313999999998,0.99159144,0.64598334,0.5496972,0.54583024,0.62844716,0.65994471,0.64974171,0.63196901,0.67307441,0.65684723,0.70476365,0.7768457,0.82811562,1.1967957,1.4450747,1.505033,1.7656167,2.0334675,2.0392521,2.5894742,2.854707
1.0,-0.53334196,-1.8556681000000002,-2.2140382,-3.1334115000000002,-3.4171372000000004,-3.0604468999999996,-2.2562981,-1.7656979,-1.6222888999999998,-1.1547278,-0.86777128,-0.90647173,-0.87130542,-0.87435826,-0.88158744,-0.9031435999999999,-0.86607165,-0.86865471,-0.84634872,-0.84449092,-0.85347664,-0.86195995,-0.80943786,-0.84169649,-0.87337192,-0.88915814,-0.90897358,-0.86972108,-0.88412267,-0.90523014,-0.93980093,-0.95116533,-0.96750259,-0.99250209,-1.00055,-0.95494752,-0.94863479,-0.90411414,-0.89658748,-0.81267242,-0.78924399,-0.71010155,-0.66955258,-0.61376458,-0.59935909,-0.51718842,-0.45020178,-0.39521824,-0.3804468,-0.39336749,-0.35022284,-0.34968190000000005,-0.30588408,-0.28722073,-0.25920436,-0.28317265,-0.26636688,-0.26271382,-0.16842277,-0.19469278,-0.12977245,-0.12958657,-0.10498221,-0.06481785400000001,-0.053427639000000006,-0.013164421,0.050629092,0.077997132,0.12776021,0.16521717,0.19037757,0.22530202,0.24942965,0.31732883,0.37778205,0.38997654,0.39844172,0.41033347,0.41015456,0.43594136,0.38914246,0.42578306,0.40887891,0.43909803,0.41708778,0.44516130000000004,0.384284,0.45751283,0.45442309999999997,0.45197146,0.45223411,0.47006201,0.44817616,0.49418289,0.50964656,0.5176745,0.67688972,0.78403996,0.87424459,0.9456575,1.0248959,1.0867153,1.2527736999999999,1.3675454,1.3227666,1.3262180000000001,1.2184424999999999,1.1167806,1.0481063,0.93974315,0.87787588,0.81094052,0.64422778,0.60055214,0.60878534,0.59690879,0.62106176,0.63352473,0.68134089,0.64581241,0.67874564,0.67005885,0.74092042,0.78719304,0.73983483,0.79384607,0.82002298,0.91486825,1.1019108,1.4095197,1.7047703999999997,1.7577696,2.0140076000000002,2.0983021,1.9152334,1.5826766,1.3321916,1.2746631000000002,1.1994292,0.31686028
1.0,0.85178389,-1.4862776000000002,-3.9043667,-4.941625,-4.282336,-3.0970638999999998,-1.9312018,-1.5690898000000002,-1.0521301,-0.10655202,-0.066951085,-0.11277209,-0.058698587999999996,-0.046265399000000006,-0.13378857,-0.17651719,-0.11162334,-0.13643747,-0.11581017,-0.21304228,-0.20557665,-0.29667035,-0.30835711,-0.45523841,-0.50014308,-0.45278289,-0.57312768,-0.70275134,-0.64572119,-0.69647047,-0.78108314,-0.89182715,-0.92071644,-0.91456165,-1.0263685,-1.0026588,-0.97886671,-0.90476753,-0.69501227,-0.68493161,-0.51978124,-0.45650388,-0.31031004,-0.26626752,-0.10157425,0.031052349,0.0035526915000000004,0.040426342999999997,0.062550591,0.069680647,0.22040444,0.11792035,0.1301579,0.24675551,0.20826631,0.25281167,0.29164016,0.44066717,0.26958432,0.44339350000000005,0.41274214,0.36475173,0.46262625,0.35237183,0.55308955,0.59358927,0.61458859,0.57977518,0.66915544,0.71567842,0.70625094,0.77333099,0.72941978,0.77701225,0.70129533,0.63203392,0.60940389,0.57457027,0.64886321,0.54822911,0.43883948,0.47639184,0.43590141,0.45862609,0.32201849,0.29927435,0.25183042,0.31820087,0.24817357,0.23915038,0.3458215,0.17787965,0.16033654,0.16501717,0.19062999,0.26687555,0.32833787,0.47325043,0.65287986,0.93563338,1.0859162,1.2350642,1.4411399,1.6680814,1.7529161,1.7363414000000001,1.5661017,1.2613803999999997,0.97630028,0.68142713,0.51849585,0.1648851,-0.17602166,-0.49025698,-0.54465695,-0.53981323,-0.58155781,-0.66257803,-0.6228561,-0.58954734,-0.73232138,-0.60769471,-0.67342333,-0.5921010999999999,-0.5993159,-0.53252789,-0.53016308,-0.41404642,-0.22510324,0.32666054,1.0290628000000002,0.85763066,0.86628606,1.1244967,1.1699138999999998,0.96957654,1.1287146000000001,1.7244534,1.7819046000000003,-0.0026400714
1.0,0.40506333,-1.4921666999999998,-3.0436824000000002,-4.5457704,-4.3606358,-3.4471162000000004,-2.3130153,-1.7258490000000002,-1.5285543,-0.63867048,-0.37682493,-0.48127970000000003,-0.46501338,-0.31573149,-0.39031783,-0.41702923,-0.42017034,-0.36281333,-0.28319042,-0.37695776,-0.42788008,-0.39653881,-0.43802676,-0.5236535,-0.43437812,-0.53058279,-0.74204998,-0.65196743,-0.61446132,-0.55330677,-0.76789682,-0.89266173,-0.80207672,-0.88284909,-0.86572266,-0.92887897,-0.93332585,-0.88958386,-0.9051775,-0.84011356,-0.80170025,-0.6340336999999999,-0.40185474,-0.31075993,-0.26544362,-0.32603611,-0.19704289,-0.12122313,-0.088212565,0.13234359,0.08090326099999999,0.030939159,-0.017912422,0.16252747,0.14374555,0.078192161,0.28211908,0.18986663,0.20951262,0.32222801,0.19576249,0.31361221,0.36743274,0.60872191,0.32883373,0.38023075,0.4182619000000001,0.44467001,0.54531354,0.56324579,0.78804544,0.76666078,0.63091957,0.57737293,0.53479019,0.54096915,0.59171874,0.63193366,0.59225801,0.44272851,0.44440055,0.42399869,0.4034409,0.40735497,0.52197825,0.35379044,0.43887195,0.31929082,0.47420731,0.42456179,0.33872973,0.30298639,0.37843243,0.34534213,0.33041978,0.28995686,0.48116331,0.47970092,0.73738422,0.99083551,1.0648768,1.158442,1.4502186000000001,1.7339622,2.0100259,1.936991,1.8805792000000001,1.8311168000000002,1.5793829,1.2725002,1.1854632999999999,0.81886409,0.30871899,-0.087379068,-0.26093959,-0.375737,-0.37160575,-0.25218158,-0.3260885,-0.40222132,-0.35931581,-0.25798971,-0.28560711,-0.5089964,-0.30032452,-0.35951965,-0.33406031,-0.23290988,-0.13429671,0.13987637,0.79277919,1.4404714,1.3082322,1.2924506000000002,1.2855226999999998,0.85574492,0.46895266,0.20058962,0.97615222,0.83962996
1.0,-2.3427142999999995,-3.6641543,-3.6197797999999994,-3.6053822,-3.5874414,-3.4780741,-2.8876227,-1.9336296000000002,-1.4436612,-1.3760427,-0.93932953,-0.64469169,-0.52994914,-0.55175233,-0.52225153,-0.49312276,-0.58891072,-0.46744944,-0.40097504,-0.43154625,-0.47019792,-0.44469417,-0.43706352,-0.46567559,-0.49131682,-0.53255503,-0.43212351,-0.43301835,-0.35706302,-0.22933707,-0.23880919,-0.30291263,-0.34617799,-0.30810945,-0.14781316,-0.12615836,-0.17098970000000002,-0.14970707,-0.15079496,-0.068106792,0.02483863,0.20394965,0.14813358,0.12481306,0.26787581,0.44064442,0.50966303,0.61148242,0.64740799,0.61643679,0.62168058,0.65723424,0.58307162,0.46145352,0.42835492,0.46810517,0.29231921,0.30691690000000005,0.39354646,0.40143571,0.44895698,0.41275353,0.3222342,0.44566001,0.41657068,0.37847671,0.34974744,0.35908874,0.31404723,0.26715792,0.35282133,0.34153870000000003,0.29689821,0.27028489,0.25248543,0.36678229,0.42709375,0.4505542,0.38970991,0.32743946,0.31133556,0.30444629,0.10312793,-0.050452612,0.27363097,0.23899661,0.24898403,0.21318320000000004,0.40160777,0.66426925,0.72049625,0.79541362,0.83257584,0.97736401,1.1330293,1.3352612,1.4912076,1.5148760000000001,1.7366148999999997,1.9048773999999997,1.9426723999999997,1.9685609,1.6713436000000002,1.439871,1.327964,1.1637084999999998,1.11418,0.9391226,0.70883585,0.40956164,0.27778204,0.13470889,0.06574478,-0.01388986,-0.0038446788,-0.045558163,-0.088683395,-0.0582888,-0.071772526,-0.17695796,-0.13471224,-0.13123371,-0.1167787,-0.13651661,-0.088805486,-0.14863134,-0.037177676,-0.027413869,0.11710034,0.39171818,0.42937099,0.37995623,-0.0088135514,-0.43825575,-0.75085898,-1.0469211999999999,-0.97364076,-0.43415687,0.23101445,-0.51970985
1.0,-0.83081234,-3.0505616,-4.0476053,-4.2326604,-3.6696191,-2.8282341,-1.9958907,-1.6922747,-1.262289,-0.63972882,-0.50583094,-0.50004825,-0.50756872,-0.51852618,-0.50769348,-0.42579634,-0.42958775,-0.49467186,-0.55570326,-0.54819549,-0.57820137,-0.5503357,-0.58073203,-0.62585347,-0.58532849,-0.57736426,-0.6574849,-0.69549282,-0.73701574,-0.83201986,-0.84116333,-0.92653536,-0.91119223,-0.86636737,-0.87610326,-0.81361302,-0.88451312,-0.71168552,-0.69429116,-0.66369268,-0.53269641,-0.49555338,-0.37895411,-0.35423944,-0.24875353,-0.17715503,-0.17074795,-0.10615154,-0.0068255843000000005,-0.013238759,-0.006804408499999999,0.07032620099999999,0.076632643,0.079222447,0.15450095,0.11031387,0.14786275,0.1528749,0.23164629999999997,0.24642791,0.21103905,0.19811614,0.26393068,0.32656335,0.38568787,0.35741931,0.39583251,0.50220077,0.49812759,0.60629007,0.5568353,0.64630388,0.65649245,0.72474404,0.66593538,0.65119356,0.70904774,0.67749281,0.58334962,0.5786819999999999,0.65214615,0.51516293,0.56163236,0.53918208,0.42286043,0.54625153,0.49908084,0.43492666,0.45323913,0.41782334,0.48327631,0.41954335,0.49233913,0.52598864,0.44095907,0.47853298,0.53838548,0.7507574,0.87217745,1.0798172,1.2204757,1.2901046999999999,1.5441345,1.7154330000000002,1.8769401000000001,1.7000842,1.6465372999999999,1.4882518,1.2894347,1.1400184,0.86218533,0.59188013,0.17248748,-0.1290809,-0.1431075,-0.25931619,-0.29160486,-0.22538799,-0.21599595,-0.23559382,-0.2237094,-0.25793116,-0.16149154,-0.2827131,-0.31845454,-0.23992660000000002,-0.20618602,-0.16181058,-0.032421739,0.19197353,0.85352978,0.94823686,0.90354015,1.2390001,1.1994468,0.95060251,0.93959592,1.3064315,1.8981593,0.17047779
1.0,0.88416093,-1.904508,-3.7093849999999997,-4.6219562000000005,-4.7367288,-3.8255992999999995,-2.3117917,-1.6205118,-1.3062441,-0.09854237,0.10636985,0.19837468,0.19865489,0.13761848,0.02009593,0.036199111,0.15154455,0.042447165,0.026993875,0.06273832900000001,-0.030109565,-0.031729104,0.00073088375,-0.1368922,-0.28035626,-0.34587504,-0.31883937,-0.46300015,-0.5304901999999999,-0.62918772,-0.6340071,-0.70038,-0.7935923,-0.8512581,-0.83229728,-0.91665745,-0.926801,-0.91895496,-0.84360072,-0.81735833,-0.70514798,-0.8204300999999999,-0.53607779,-0.469365,-0.2431687,-0.094261729,-0.04063026,0.06489730099999999,0.14070183,0.087725181,0.09918348,0.26041782,0.21869644,0.29343191,0.23894728,0.31089879,0.35164681,0.4285843,0.40265281,0.39836750000000004,0.49032617,0.42522077,0.49115569,0.50675809,0.47181139,0.51411297,0.60831431,0.63013834,0.80780105,0.66355579,0.72511025,0.90306107,0.82437506,0.96849691,0.9121597,0.90998124,0.92187043,0.87287831,0.91203725,0.88322154,0.69053295,0.81471247,0.70710302,0.72224021,0.72226475,0.62471818,0.48371863,0.59915686,0.49037199,0.48153663,0.45700768,0.41803729,0.36694212,0.27696812,0.29741855,0.28105991,0.18315134,0.26717769,0.17114741,0.38320806,0.48144159,0.28595044,0.29501784,0.5300597,0.64665966,0.77336382,1.1200971000000002,1.4921608999999998,1.3169518,1.3595556,1.155564,0.77909476,0.50826241,0.69163764,0.5153092,0.026264411,-0.39166083,-0.60806945,-0.65161966,-0.29788394,-0.46618581,-0.51178022,-0.62699876,-0.61599706,-0.57557994,-0.50926293,-0.64225486,-0.60314325,-0.43182793,-0.34472771,0.30671784,1.5482666,1.6712941000000003,1.2077835,1.2130445,0.37725835,-0.21555874,-0.93964225,-0.20846734,-0.65829992
1.0,1.1048512,-0.61504694,-2.4357678,-3.4192147000000004,-4.3342606,-4.0145647,-2.6293943,-1.7277605,-1.5672598,-0.54344387,-0.032608379,0.052262962,0.047854735,0.07884360900000001,0.056478745,0.06503603200000001,-0.13298503,-0.10655903,-0.16626916,-0.1679443,-0.17780281,-0.33855385,-0.39948177,-0.46678688,-0.40730265,-0.52599942,-0.45350912,-0.59070185,-0.69272233,-0.73933223,-0.81219324,-0.89854487,-0.93068782,-0.85476892,-1.0356973,-0.97818776,-0.99069785,-1.0832035,-1.0286351,-1.0438466,-0.98387526,-0.92663997,-0.84601736,-0.65032235,-0.65880903,-0.57758224,-0.42640398,-0.24153857,-0.29990283,-0.23285641,-0.16665437,-0.16778005,-0.22606564,-0.033829763,-0.091845811,-0.10783691,0.012430121,0.0087887511,0.13536591,0.11715629,-0.0019618979999999997,0.15090682,0.090115532,0.18195675,0.11740211,0.30042440000000004,0.39188205,0.4019147,0.43046239,0.40666469,0.5432100000000001,0.55989075,0.5297261,0.53984827,0.68314472,0.5855253,0.73705409,0.52879474,0.3895254,0.40099651,0.41857478,0.45111686,0.45068481,0.55263517,0.48097082,0.44995928,0.44558714,0.29426047,0.23374698,0.26881482,0.23809717,0.31589206,0.38985966,0.42461387,0.26276995,0.17524475,0.26951942,0.30616273,0.18566825,0.18484815,0.25212365,0.37290132,0.71421291,1.0620325000000002,1.190075,1.4349882,1.5473163,1.9544261000000003,2.2300508999999997,2.3999509999999997,2.1807448,1.8623289,1.6972293,1.2327377,1.0420004,0.72458718,0.066087348,-0.17406161,-0.15736415,-0.25722836,-0.32260303,-0.35008558,-0.26817206,-0.23951853,-0.29855187,-0.29278945,-0.17049979,-0.18110079,-0.31513096,-0.33250240000000003,-0.089673179,0.37870171,1.4543190000000001,1.5331198,1.3983858,1.7068272,1.3385315,0.733911,-0.30058531,-0.22360552
1.0,-0.69539923,-2.0008649,-2.6317932999999996,-3.3096623,-3.6957857000000005,-3.5143872000000003,-3.0958049,-1.9830468999999997,-1.1244418,-0.84165015,-0.36466335,-0.0014020092000000001,-0.019985354,0.023048798,0.10571143,-0.038620262,0.1288401,0.16927038,0.16215689,0.059635241,0.21488956,0.12881461,0.037699842000000004,0.09418588,0.15749332,0.082526701,0.021673644,0.030732027000000002,0.072754053,0.07309028299999999,0.062655868,0.038713679,0.0027750787,-0.007015119100000001,0.10210396,0.11865287,-0.00070956822,-0.057169992999999995,0.10924887,0.10704586,0.11118801,0.23236416,0.17411022,0.30340929,0.36116636,0.20342115,0.31430842,0.32745863,0.39559731,0.40742592,0.38840212,0.34951355,0.37679381,0.42590929,0.40041042,0.41863674,0.40324547,0.41548239,0.30339543,0.31711989,0.3112929,0.34569511,0.25711654,0.18670332,0.34942692,0.39840382,0.38565369,0.36402212,0.39734204,0.43708645,0.3393584,0.41206427,0.44889188,0.59112201,0.56744708,0.27606811,0.36236832,0.52457008,0.48341201,0.63083851,0.6032006,0.57145463,0.45679147,0.39528220000000003,0.48637297,0.52845272,0.4245975,0.4709197,0.51050283,0.4790210999999999,0.42743072,0.45596264,0.6057269000000001,0.87832353,0.93857448,1.0237718,1.3713441000000002,1.5534944,1.8455145,1.9647878,1.973784,1.8853201000000002,1.6019487,1.5557128999999998,1.2676938,0.88135873,0.66731569,0.2607513,-0.24962158,-0.31971025,-0.43501598,-0.41281525,-0.42066465,-0.58916408,-0.51245156,-0.5486057,-0.72887865,-0.54410111,-0.59075118,-0.55776601,-0.53202126,-0.54489517,-0.53799723,-0.46689758,-0.53587557,-0.43096084,-0.19411509,0.33747064,1.060959,1.1575028,0.85910205,0.22876558,-0.73635467,-1.5407437,-1.8400319,-1.9371403999999999,-1.3060067,-1.4371505,-2.0222007,-3.1768335
1.0,-1.2277593999999998,-3.2861576,-4.0213751,-4.681,-4.0543767,-2.8484133999999997,-1.9718769,-1.5533419,-0.73976967,-0.24952792,-0.24106219,-0.22594126,-0.24211156,-0.13453778,-0.13554858,-0.22445644,-0.26305653,-0.20349192,-0.21084231,-0.24089787,-0.37940199,-0.34088977,-0.34684971,-0.37825214,-0.35476916,-0.45518246,-0.41265306,-0.61587201,-0.59326038,-0.71257731,-0.77619202,-0.84025617,-0.8584073,-0.71511994,-0.86533701,-0.77926799,-0.82465446,-0.87324388,-0.83367105,-0.75357017,-0.66427349,-0.57703937,-0.32828062,-0.21946834,-0.131827,-0.055075393,0.023814419,0.04738258,0.048000274,0.16110342,0.17152045,0.16480965,0.11281047,0.21640349,0.15398013,0.21603558,0.25529161,0.20001702,0.23901639999999996,0.20589034,0.28661855,0.29561763,0.27886488,0.30594777,0.32401453,0.2673894,0.34360864,0.41807589,0.42625885,0.45587042,0.51197813,0.45390340000000007,0.56572072,0.636943,0.71217775,0.70797953,0.60997214,0.60351655,0.63146153,0.59933243,0.57428146,0.59072415,0.49526459,0.49051705,0.5451924,0.45760556,0.49144645,0.4072186,0.44243302,0.39855099,0.36649088,0.39849693,0.34145259,0.36548077,0.35561001,0.38302319,0.40455277,0.54407555,0.74816301,0.93648489,1.0684685,1.2227832,1.3365782,1.6316859,1.8887178,1.8590194,1.8919179,1.6934637,1.5817616,1.2635078000000002,0.97943831,0.74996163,0.26019581,-0.05181838,-0.10673436,-0.21286752,-0.18100471,-0.23691684,-0.24097642,-0.20919780000000002,-0.17692191,-0.16545856,-0.16163486,-0.21371257,-0.20063199,-0.21946088,-0.21164628,-0.12618302,0.0008689142699999999,0.38263479,1.0619239,1.1019643,1.112123,1.1300149,0.79151423,0.26194714,0.21634899,0.53638027,0.55284528,-1.8083546999999998
1.0,-1.3353913,-3.4690114000000003,-3.8148855999999998,-4.390503900000001,-4.0062885,-3.284897,-2.1571032000000003,-1.3821288,-1.03015,-0.57765739,-0.15224682,-0.34734899,-0.30394852,-0.27271367,-0.203822,-0.13090709,-0.08681234300000001,-0.15665255,-0.13258896,-0.10372429999999999,0.10060985,0.21012806,0.10828974,-0.028555807000000002,-0.14063993,-0.051812000000000004,-0.10726264,-0.16426570000000001,-0.13531107,-0.0090365558,0.07463439599999999,0.17290288,0.45899131,0.45768877,0.057334326,-0.24982739,-0.14258171,0.25803288,0.27963887,0.073787862,0.18502643,0.13427193,0.2041662,0.39188259,0.30839743,0.31691497,0.37525025,0.31924646,0.12954302,0.050297033,0.17674269,0.21832419,0.20085554,0.10617549,0.086559861,0.30675708,0.25918214,0.043706012999999995,-0.06089322900000001,-0.18929039,-0.23510996,-0.10876535,0.0091863981,0.006795548199999999,0.10985631,0.096632524,0.022157991000000002,0.006585245500000001,0.031846974,0.22644666,0.31114423,0.28821453,0.22024298,0.26442975,0.38136609,0.46466154,0.60660841,0.65025523,0.50635666,0.39941547,0.33802357,0.29915944,0.34226667,0.36727393,0.26878788,0.25760839,0.34000499,0.3459793,0.34131009999999995,0.46761456,0.35803673,0.3601752,0.48669179,0.39136373,0.54366579,0.8015517,0.97278985,0.9470379000000001,1.1331361,1.3726526000000001,1.7330941000000002,2.0773572,1.9415401,2.0670867,1.9659311000000002,1.7493057,1.5260853,1.1551628999999999,1.0690593000000002,0.72183501,0.54853089,0.10818012,-0.14292171,-0.26450656,-0.37677251,-0.35424141,-0.20604847,-0.28397892,-0.41070243,-0.41723531,-0.49329191,-0.29261544,-0.39461907,-0.34178127,-0.232109,-0.35916016,-0.27809835,0.083357264,0.48794694,1.0580669,1.0964763000000002,0.72558295,0.34455783,-0.70564555,-1.3966628,-1.5982536,-1.1323195,-0.52638498,-0.49185942,-2.2004852
1.0,-0.57057541,-3.0182942,-4.255153900000001,-4.170565,-3.8254951,-2.95522,-1.7560359,-1.5059988000000002,-1.1146806,-0.41407790000000005,-0.20999417,-0.25282048,-0.17914872,-0.25539908,-0.22658879,-0.23999936,-0.25178232,-0.31043199,-0.2903524,-0.28516817,-0.31871756,-0.33207054,-0.43625125,-0.37975806,-0.41561133,-0.51026114,-0.54042029,-0.61986552,-0.69587977,-0.67650297,-0.70446012,-0.7256848000000001,-0.81261656,-0.86218521,-0.75484832,-0.89279999,-0.90710615,-0.78343331,-0.83131897,-0.75454105,-0.69783003,-0.68814467,-0.62024079,-0.58111261,-0.39025569,-0.39671042,-0.29867569,-0.048376735,-0.15940151,-0.012299041,0.02722176,-0.021089424,0.023121207999999997,0.07549935099999999,0.11885225,0.06728479700000001,0.12700796,0.20118456,0.20573953,0.20752071,0.26309847,0.23497068,0.26322962,0.27238709999999994,0.38315375,0.38223104,0.26814225,0.43351153,0.42796689,0.50722049,0.54612859,0.51957909,0.63420662,0.52192862,0.61671368,0.61024196,0.49113903,0.57575917,0.62301987,0.57171471,0.62310348,0.49406835,0.53078937,0.58982918,0.52312625,0.4926863,0.47606131,0.51815695,0.43330936,0.4664067,0.47485783,0.45152257,0.43376607,0.43435107,0.54031828,0.72257108,0.82642661,1.0485538,1.1122542,1.3402777,1.5609973999999998,1.700551,1.9240834,1.835127,1.8735575,1.7434677,1.5311838,1.4211214,1.1582272,0.84444575,0.45639106,0.094326873,-0.11086729,-0.29659388,-0.37012404,-0.38410214,-0.42196859,-0.37908979,-0.33193441,-0.37992519,-0.33559634,-0.36886029,-0.35406547,-0.33758831,-0.39524759,-0.43247783,-0.34153063,-0.3444394,-0.15449115,0.24259011,0.80757266,0.75169411,0.81610627,0.91104374,0.95894504,0.7647448,0.87664661,1.2841508,1.9247869,0.48118142
1.0,-0.42019446,-2.2895413,-3.230651,-3.7655611000000007,-3.7326101,-3.5870565,-2.8350787,-1.8828295,-1.6274844,-1.3961483000000001,-0.81736983,-0.60096869,-0.59909722,-0.55673279,-0.56251778,-0.48096527,-0.5166508,-0.47945338,-0.46914073,-0.51085888,-0.49146669,-0.56916167,-0.5691976,-0.55572236,-0.56069247,-0.63924383,-0.67472275,-0.65707615,-0.6976312,-0.7186231,-0.68302177,-0.79405161,-0.75341666,-0.76602601,-0.73825806,-0.7804996,-0.76100661,-0.69276812,-0.67994378,-0.71244976,-0.60152543,-0.53160117,-0.46621736,-0.37686763,-0.32110625,-0.27696085,-0.23474521,-0.20591610000000002,-0.18013518,-0.061637672000000004,-0.10556983,-0.14914241,-0.06515303900000001,-0.086508617,-0.09412837800000001,-0.09779248,-0.037321678999999996,-0.067789921,-0.055178984,-0.053067934000000004,-0.043099675,0.00475112,-0.027189388,0.012097955,0.15421829,0.10891842,0.10908216,0.24847628,0.27558216,0.33624305,0.29352951,0.37009387,0.39734304,0.43709352,0.46320937,0.52679908,0.50666609,0.50916741,0.49089934,0.53236164,0.47703345,0.57115487,0.52667566,0.39534591,0.47440402,0.42694427,0.44489981,0.42348426,0.3977815,0.37748194,0.4274486,0.44498266,0.52064549,0.53042687,0.69081977,0.83323976,0.91824752,1.0752406,1.1571153,1.3128521,1.6479778000000003,1.8194294999999998,1.9162442,1.8361490000000003,1.7969796999999998,1.6721843,1.4913276000000002,1.395224,1.0805046,0.85725011,0.60844242,0.22197886,0.098964599,0.09493682099999999,-0.018630676000000002,0.068927938,0.08473264400000001,0.0097358801,0.048140895999999996,0.0045882515,0.009386164,0.0018391351,0.071356463,0.042397475,0.046649605999999996,0.074311287,0.06642207900000001,0.19396205,0.39097637,0.82665121,1.1275102,1.1004756000000002,1.2692124,1.382491,1.2891632,1.0581559,1.0288882,1.1910107,1.6219145000000001,0.26392718
1.0,-1.5358419,-3.0086447,-3.5876898999999995,-4.3052777,-4.2165415,-3.6361915999999996,-2.379914,-1.566276,-1.516406,-0.83856508,-0.40179849,-0.37097589,-0.17180447,-0.21806725,-0.1670116,-0.19965632,-0.18330083,-0.30439982,-0.29097689,-0.18499520000000003,-0.29352338,-0.29429033,-0.25198509,-0.24314754,-0.27641962,-0.20388638,-0.30902873,-0.35036795,-0.24129251,-0.28823079,-0.20627797,-0.27196118,-0.24797246,-0.18689316,-0.18288249,-0.11411781,-0.10582175,-0.10890915,-0.00061497638,-0.12624701,-0.041925526,-0.050347247000000005,-0.07660344200000001,0.045438321,0.18197814,0.22642345,0.07148546,0.09451913599999999,0.097125455,0.061440722999999996,0.1348883,0.14413556,0.11015081,0.043620609000000005,0.051160615,-0.10145015,-0.073519675,-0.024526747999999998,-0.061864619,-0.030024329,0.043149198,-0.048533652999999996,-0.030187897999999998,-0.12183458,-0.13021229,-0.071391947,-0.010528606000000001,0.040706617,0.011227272,-0.027052866000000002,0.08410061,0.20502606,0.17349523,0.25928536,0.27482546,0.37578085,0.40364690000000003,0.31834719,0.45626857,0.37436954,0.31861871,0.34078444,0.35006511,0.45473546,0.45733099,0.27159237,0.22936415,0.45579006,0.36695524,0.30237728,0.40372016,0.36976237,0.36102967,0.31707017,0.51347764,0.67142219,0.92187061,0.90738302,1.0582451000000002,1.4202892,1.7489668,1.9454208,1.9428666,1.8867078999999998,1.7714481,1.6333215,1.5404293,1.1808376,1.0710919,0.85485969,0.47011390000000003,0.0044300669,-0.086120974,-0.06334892,-0.093972012,-0.24528334,-0.22416315,-0.16751301,-0.24647057,-0.15289427,-0.18139042,-0.30479033,-0.18948547,-0.18280855,-0.11658759,-0.17004684,-0.19295235,0.059414863,0.59607137,1.3257673,1.8161744,1.67373,1.7299076,1.4307981,0.87246524,0.021157049,-0.93431948,-0.92335403,-0.38206138,-1.2046879
1.0,-1.0052389000000002,-2.4362805,-3.4994445,-3.8380379999999996,-3.8016746,-3.6439008999999998,-3.3289629,-2.7792914,-1.7577363000000001,-1.0347445,-0.93514128,-0.56860701,-0.23403932,-0.20889271,-0.19577253,-0.13777583,-0.15399033,-0.20139619,-0.22885336,-0.20212002,-0.30374196,-0.1773612,-0.15702298,-0.16399832,-0.13134614,-0.096282544,-0.17666483,-0.18896829,-0.24325715,-0.21235248,-0.15103432,-0.23826105,-0.16849139999999999,-0.23052778,-0.20057006,-0.20345244,-0.17617896,-0.21229987,-0.15242651,-0.15564496,-0.14399915,-0.017710398999999998,0.0096194909,0.020634759,-0.19201669,-0.15140281,-0.13402278,-0.044067527,0.044815038,0.1206726,0.13053903,0.015069853000000001,0.12296043,0.18211235,0.14845191,0.14489343,0.088950561,0.16581449,0.036857137000000005,0.081489139,0.1296624,0.09109421,0.071504307,0.019089427,0.0028242054,0.047079895,0.025487256,0.018797214,-0.044738485999999994,-0.11906001,-0.016007808000000002,0.09976175699999999,0.19171960000000002,0.17977077,0.21233109,0.28308215,0.28324424,0.25872954,0.31484474,0.4329522,0.43769665,0.50887759,0.37288291,0.45446685,0.5556842,0.54310477,0.61870201,0.60980323,0.69446508,0.7220867,0.682539,0.91127726,0.9166199,1.0481296999999998,1.252841,1.5021221000000002,1.7648366999999998,2.0446786,2.2040396,2.0854115,1.7712558,1.5917523,1.5173508999999998,1.3419957,1.1793729,0.91580805,0.63831862,0.3152204,0.042941872,-0.10883554,-0.27261404,-0.34453552,-0.28010625,-0.17451486,-0.15729757,0.0015682451,-0.055849324000000006,-0.16402679,-0.16323901,-0.26140549,-0.22618867,-0.17703584,-0.23366147,-0.26081051,-0.19306196,-0.073188738,0.17989831,0.50012398,1.0374011,1.4135754999999999,1.3582267,1.2670681000000001,0.96672069,0.65558537,0.22622873,-0.30167540000000004,-0.5930856,-0.23485428,-0.18233337,-1.5724036
1.0,-0.73224152,-2.8921096,-4.2502468,-4.443207900000001,-3.4910047999999994,-2.2713938999999996,-1.5571537,-1.4357576,-0.80714147,-0.24559761,-0.28450477,-0.41787131,-0.35791305,-0.37213228,-0.32528937,-0.32644759,-0.43521933,-0.3689067,-0.37937607,-0.46037949,-0.3774377,-0.59218228,-0.44616847,-0.50431547,-0.56692453,-0.51645685,-0.61992508,-0.71202264,-0.77482937,-0.82949636,-0.85974856,-0.92960948,-0.91037983,-0.99806185,-0.97408041,-0.94489974,-0.97012782,-0.88744157,-0.85249628,-0.70343429,-0.66612738,-0.62787315,-0.49903048,-0.43267733,-0.3682127,-0.20951495,-0.13495439,-0.17433523,-0.1650145,-0.053942427,0.018836216,0.022038914,0.060546562000000005,0.077664813,0.056219530999999996,0.15933072,0.07877791099999999,0.09284514699999999,0.053993152,0.17712665,0.29240171,0.22855205,0.29591351,0.29768082,0.26555321,0.20237355,0.27684093,0.33887877,0.40949086,0.48706815,0.53600663,0.4500307,0.42441648,0.43714954,0.49561565,0.49948602,0.5133587000000001,0.55634806,0.60002528,0.54696125,0.58010704,0.53784193,0.55395715,0.41434896,0.46788253,0.4719151,0.36747852,0.41941102,0.41799853,0.37024246,0.43024659,0.40410099,0.31255256,0.3684524,0.36786958,0.54060526,0.68575392,0.90113952,1.1605892,1.3511601,1.5473221000000001,1.7567394,2.0145866999999997,2.0772723,1.995885,1.8681145000000001,1.754257,1.4663059999999999,1.1964583999999998,0.95118522,0.6171142,0.17938608,-0.089864576,-0.19065669,-0.20265385,-0.23596803,-0.27541036,-0.2900041,-0.32841182,-0.38147962,-0.31409503,-0.31431856,-0.33260598,-0.31014621,-0.34238822,-0.34561429,-0.32814258,-0.29241647,-0.09640887699999999,0.40148014,1.0286786,1.0411839,1.0124668,1.1144896,0.98550461,0.9285609,0.96629182,1.2010698,1.8474354,0.79922813
1.0,-0.89012079,-2.9627513999999997,-3.9338848,-4.1467222999999995,-4.0186406,-3.4807612,-2.3858521,-1.7193198,-1.4969458,-0.89725806,-0.50698096,-0.3853143,-0.46849892,-0.36727089,-0.39353827,-0.3952009,-0.31877673,-0.42233107,-0.35944537,-0.33967511,-0.35171196,-0.40175492,-0.40756941,-0.42773501,-0.3648088,-0.48136008,-0.45116041,-0.47213618,-0.56414051,-0.51634653,-0.61834751,-0.65592017,-0.64225259,-0.67794617,-0.63751793,-0.65298357,-0.54070943,-0.58961325,-0.50648178,-0.5110702,-0.43307906,-0.40364256,-0.31731061,-0.28107946,-0.21528781,-0.18701031,-0.085051418,0.062130637,-0.03342439,0.08880063199999999,0.04342455,0.068830698,0.13034003,0.066110705,0.19341325,0.11852381,0.18002739999999998,0.15450231,0.18830958,0.18167517,0.17644328,0.22549272,0.28465931,0.31419734,0.27055763,0.30250799,0.35516019,0.39079185,0.39001373,0.51079926,0.50421029,0.5642085,0.59558241,0.64565153,0.67133503,0.71949165,0.7302833000000001,0.63794991,0.69126722,0.61705456,0.62135767,0.59602532,0.56516368,0.59017704,0.57243688,0.53304209,0.37669671,0.37548733,0.53244321,0.38152593,0.49756083,0.40236585,0.37722221,0.47999682,0.57844584,0.69624125,0.830224,1.0342495,1.0610242,1.3000007,1.4981378,1.7173971999999997,1.9408444,1.8661696,1.7533353999999999,1.7112984,1.5430725,1.3332979999999999,1.0856695,0.82462701,0.51599856,0.070408279,-0.18485479999999999,-0.22127336,-0.37888537,-0.34455225,-0.39914133,-0.40826481,-0.32158653,-0.37067438,-0.37919615,-0.39813246,-0.38958232,-0.40595457,-0.37609434,-0.35250465,-0.33047191,-0.32701824,-0.11158369,0.29232887,0.86353637,0.86082401,0.95850957,1.0156449,0.95768969,0.63041298,0.65071086,0.73073251,1.3649572,0.35547544
1.0,-1.1673149999999999,-3.8051477,-4.3736282,-4.3527538,-3.2785752,-2.2964717,-1.5823639999999999,-1.1580407,-0.30166002,-0.0680392,-0.28044236,-0.08759318599999999,-0.22054172,-0.11118651,-0.1414743,-0.12385686,-0.18093304,-0.26535790000000004,-0.22605572,-0.37355761,-0.31701296,-0.46380791,-0.51791145,-0.43222856,-0.52681068,-0.53449918,-0.66815757,-0.72417354,-0.75496464,-0.70433047,-0.89380591,-0.91044219,-0.92231403,-0.94744015,-1.0010781,-1.0183401,-0.96597147,-0.91248305,-0.95754894,-0.80273417,-0.61419373,-0.58057595,-0.53093126,-0.42722052,-0.42384403,-0.27151354,-0.18479391,-0.13302286,-0.071390478,-0.11820961,-0.16863588,-0.14267787,-0.076372686,-0.032988195,-0.059223422000000005,-0.022415481,0.10350887,0.014135716999999999,0.027918696,0.13282664,0.15311366,0.13187647,0.16126669,0.18632303,0.32332821,0.32407252,0.20662688,0.263343,0.43628546,0.39632516,0.49788326,0.54888137,0.61685291,0.56332631,0.61758123,0.44427254,0.47008179,0.62804064,0.60786419,0.5290657,0.50104162,0.40646777,0.40140928,0.20535523,0.25831366,0.36926149999999996,0.35877226,0.28245039,0.21821417,0.35632324,0.12208949,0.1815241,0.20843531,0.26245177,0.29428327,0.32249623,0.33914518,0.32824169,0.53033012,0.75108429,0.89350041,1.1340917,1.2107886,1.3943428999999998,1.6592754,1.911118,1.8193337,1.7467245999999998,1.6358476999999998,1.3972662,1.219365,0.96965494,0.70561679,0.30052627,-0.05422469,-0.19431537,-0.19371648,-0.13737348,-0.205058,-0.15021099,-0.19604325,-0.16871358,-0.18104614,-0.10871251,-0.08556229,-0.063729872,0.0056556374,0.055309262000000005,0.23945278,0.74382224,1.6920685000000002,1.9307733,1.7295751,1.8781147,1.3714248,0.73536639,0.30191148,0.58493371,1.1736031,-0.5541889
1.0,-1.6235661,-3.3997562999999995,-3.6764553999999996,-4.2359019,-3.9280802,-3.1070057999999996,-2.1689032000000004,-1.5069663,-1.3911013,-0.78307233,-0.45445845,-0.48043172,-0.37838326,-0.21872102,-0.46045626,-0.37150907,-0.26633608,-0.41510431,-0.5118748,-0.5567008000000001,-0.40308806,-0.40352672,-0.32355029,-0.46720832,-0.48754911,-0.46672166,-0.36797327,-0.34875967,-0.50259872,-0.54459634,-0.39696131,-0.40900731,-0.5223293,-0.56949992,-0.44796011,-0.42797255,-0.41466763,-0.20869034,-0.12152529,-0.23344973,-0.3090965,-0.10471217,-0.06584867700000001,-0.11969531,-0.06725643,-0.051352287999999996,0.014459949,0.014593106000000002,0.087652405,0.18128873,0.26606751,0.08954122,0.12814566,0.11629816,0.187649,0.17703563,0.14369127,0.11224584,0.15268272,0.13513655,0.094754566,0.22750157,0.16860843,0.07768749,0.16685752,0.19218905,0.20904148,0.31543817,0.33198962,0.21248442,0.22739464,0.21282057,0.21731914,0.32385992,0.49252757,0.44660855,0.45723557,0.5251918999999999,0.36265811,0.42061750000000003,0.69280567,0.60682352,0.54877185,0.49850154,0.53548986,0.5278568,0.41504461,0.51440686,0.52921968,0.4641646,0.40907254,0.45462755,0.44188704,0.59105376,0.83304861,0.88968347,0.86471774,0.67450369,1.0422663,1.3543379999999998,1.6952817,1.9977728,2.184659,2.181791,1.9133349999999998,1.7731801,1.7903156999999998,1.3947208,0.99553099,0.64864917,0.36427101,0.22127138,0.064669285,-0.18759692,-0.040153664,-0.0091514757,-0.26234189,-0.27694559,-0.11146408,-0.077797297,-0.093048554,-0.13827951,-0.2509771,-0.24753442,-0.09332016300000001,-0.046039392,-0.10057063,0.05383187,0.33045535,0.82750567,1.4625743999999998,1.5201964,1.2697541,0.75959325,0.44218816,-0.11544603,-0.68162531,-0.86467886,-0.44253426,-1.5092173999999998
1.0,-0.36223864,-1.7844796000000003,-2.5083201,-3.3544479,-4.0644447999999995,-4.0826378,-3.1472645,-1.9481881,-1.6159005,-1.1534676000000001,-0.50734883,-0.38202742,-0.42956633,-0.4106477,-0.4118691,-0.45637857,-0.41552937,-0.33841020000000005,-0.36942247,-0.42583576,-0.42737166,-0.45705168,-0.45900773,-0.42789231,-0.40659979,-0.50514702,-0.42865869,-0.45081377,-0.44279431,-0.35295096,-0.46491132,-0.44258162,-0.47387809999999997,-0.47921437,-0.48161952,-0.41689570000000004,-0.39130076,-0.45745873,-0.36715071,-0.28182827,-0.2625033,-0.19982543,-0.14066837,-0.074566735,-0.036286271,-0.037843927,-0.049748309000000004,-0.044947342,0.023969063,0.12431083,0.10909609,0.054363113,0.015614599,0.08481419,0.22723332,0.080303814,0.086958663,0.20174401,0.13552734,0.13975209,0.14925737,0.26922191,0.23667576,0.23312419,0.33590074,0.22053476,0.33001595,0.43130015,0.42392871,0.53114588,0.43526943,0.62659659,0.55431914,0.52266028,0.57222965,0.60659424,0.61375103,0.59177318,0.70874236,0.64300764,0.60120363,0.59994036,0.6075741,0.67023803,0.64885793,0.61729874,0.57126129,0.52838847,0.53242586,0.52688268,0.42468098,0.47752977,0.42007798,0.48201915,0.50782505,0.55290544,0.81902576,0.88456518,1.1655065,1.334961,1.5170872,1.8704361,2.0281773000000003,2.1060679,1.9710633000000002,1.8667907,1.6657060000000001,1.5288624,1.3481785,1.1076471,0.83490178,0.46330661,0.078312763,-0.09934645,-0.22446981,-0.16068742,-0.20262924,-0.22276942,-0.21303999,-0.28244281,-0.17101291,-0.14876225,-0.20503433,-0.17522255,-0.24124747,-0.21424829,-0.147674,-0.056692244,0.18510648,0.84045704,1.6583291,1.568298,1.0502714,0.10658581,-0.88507884,-1.6244988999999999,-1.7209912,-1.1105136,-0.21070244,-1.1414833999999998
1.0,-0.90458107,-3.9746339999999996,-4.510299900000001,-4.6731428,-3.7246214,-2.2525503,-1.6360143999999999,-1.3837805,-0.40023199,-0.14178139999999997,-0.22392116,-0.17371756,-0.19909525,-0.1895221,-0.1520465,-0.20402843,-0.19600469,-0.18259363,-0.15392353,-0.24066052,-0.27781369,-0.27706517,-0.37566231,-0.37797077,-0.37161114,-0.44057586,-0.45477555,-0.59586846,-0.6663536,-0.57511152,-0.71079189,-0.77731683,-0.8696028,-0.85308318,-0.9218574,-0.98011179,-0.9054177,-0.8583245999999999,-0.82752307,-0.74327891,-0.7005614,-0.69859824,-0.53947291,-0.41864474,-0.38201724,-0.22987122,-0.18021706,-0.18958804,-0.07609606599999999,-0.14900446,-0.11381254,-0.0098287189,-0.048593897000000004,0.0029303735999999998,0.086789859,0.014940651000000001,0.077042678,0.027397575,0.080158029,0.17461441,0.16720257,0.144136,0.25065877,0.29663284,0.37223953,0.41393616,0.38510644,0.43085296,0.56243856,0.60297185,0.59735605,0.63454906,0.54572049,0.50694588,0.57644871,0.66168559,0.61415344,0.55116291,0.56290413,0.52818638,0.45967392,0.41842346,0.39746079999999995,0.44910950000000005,0.36585567,0.31902182,0.30726098,0.35605716,0.35702494,0.38663343,0.33260286,0.34285951,0.26882087,0.28861282,0.25792103,0.19085968,0.24239711,0.26718603,0.42164544,0.5512887,0.98578606,1.2778819,1.3496814,1.528001,1.7701628,1.8856121,1.8096406999999999,1.7767351000000002,1.599697,1.4222594,1.2348877,0.85633146,0.63176131,0.14128223,-0.16977181,-0.16504039,-0.21068760000000003,-0.21277438,-0.16832463,-0.1707374,-0.19000081,-0.10030293,-0.15327311,-0.13729125,-0.16898206,-0.18996937,-0.072159769,-0.028513244,-0.14231479,0.016503288999999997,0.31993867,1.118221,1.3583737,1.1391897,1.0527526000000003,0.86344011,0.8401325000000001,0.77195035,1.510185,0.28343267
1.0,-2.5949047000000003,-4.1514644999999994,-4.643428500000001,-4.3576917,-3.9019369,-2.9118371,-1.5553702,-1.2006118000000001,-0.77976093,-0.1142586,0.080947273,0.075851291,0.055181543,0.20512091,0.29668782,0.15013295,0.13432447,0.24218827,0.14848524,0.09689592699999999,0.17476024,0.15358528,0.1905021,0.074197481,0.012949628000000001,0.0244581,-0.0072936128,-0.06698314400000001,-0.07365484,-0.10730739,-0.079369701,-0.14439459,-0.25937011,-0.17760876,-0.18767956,-0.17631598,-0.12213230000000001,-0.14124246,-0.31327059,-0.11485462,0.05949444,-0.021099561,-0.10665638,0.012203245,0.19385911,0.077997626,0.18123547,0.28056566,0.30773048,0.23159738,0.23276693,0.33474844,0.25408468,0.24746096,0.17480399,0.12100028,0.18567011,0.10047883,0.096765955,0.13543156,0.18000045,0.11854073,0.035527191,0.19562318,0.051952569000000004,0.18715643,0.25118252,0.19535052,0.25009917,0.30315734,0.33673741,0.25720865,0.34135023,0.33936638,0.52008077,0.5089679,0.4695539000000001,0.51764778,0.40343459,0.39335444,0.42298229,0.4595294,0.40122682,0.27213025,0.17879557,0.32539325,0.27659513,0.28243719,0.18380449,0.176948,0.31323857,0.28873225,0.35923958,0.55047092,0.74549809,0.80153328,0.84628735,1.099008,1.3853826,1.5976793,1.8079991999999998,1.8711493000000001,1.7325611,1.5602088,1.4163048999999999,1.2694439,1.0031622,0.79368932,0.48518066,0.13436985,-0.20564483,-0.46313906,-0.54113026,-0.45496000000000003,-0.47853149,-0.6262850000000001,-0.60467769,-0.6436888000000001,-0.57051449,-0.59156019,-0.64118859,-0.58997134,-0.59616842,-0.64512129,-0.55718348,-0.56590631,-0.38884868,-0.095883513,0.40814375,0.78654821,0.66954818,0.86879785,1.0016306000000001,0.79873373,0.56890777,0.31506655,0.46475067,0.45588317,-0.5972249,-2.411321
1.0,-1.3428388999999998,-3.1055562,-4.2213757,-5.0585556,-4.4153574,-3.3032371,-1.8354988999999997,-1.4440245,-1.0684902,-0.25629486,-0.18464738,-0.24840243,-0.14315079,-0.18892772,-0.15790618,-0.080609906,-0.11408944,-0.092578816,-0.16961134,-0.092710141,-0.26089645,-0.28833587,-0.24783623,-0.24151294,-0.32344032,-0.38074449,-0.35802344,-0.33843064,-0.4746741,-0.43006284,-0.51033599,-0.63027778,-0.59990123,-0.60124726,-0.66896302,-0.6097343000000001,-0.63835921,-0.64466303,-0.56799944,-0.50086376,-0.4796763,-0.32214602,-0.23271716,-0.17231577,-0.07456141299999999,0.022933757000000003,0.0083203883,0.13067715,0.08158175599999999,0.10725433,0.036313162,0.00028797476000000003,0.0049230299,0.012453809,0.035813664,0.062861689,0.14062989,0.10622848,0.099531849,0.14047023,0.13435056,0.20825983,0.15823242,0.18790376,0.20797399999999996,0.27312177,0.36942613,0.39546889,0.44592629,0.46756977,0.40386582,0.53118618,0.49237377,0.52855499,0.50872514,0.6726313,0.50953197,0.50313103,0.50230094,0.47863825,0.54848325,0.52572013,0.47596633,0.49337863,0.44359027,0.36462016,0.46532027,0.40664691,0.39767008,0.46033345,0.41091808,0.37831618,0.39876283,0.42139373,0.42121454,0.42094090000000006,0.40785799,0.37691334,0.3794743,0.45717537,0.47020762,0.60941597,0.80532549,0.94578835,1.2683278999999998,1.3157704,1.1559648999999999,0.74569869,0.64831799,0.77000125,0.60169476,0.6421576,0.5994194,0.38356415,0.081387455,0.0009820905499999999,-0.0018708875,-0.07106309400000001,-0.055175652,-0.059996785,-0.12453499999999999,-0.11459139,-0.12308181,-0.10999439999999999,-0.048607261,-0.064889637,-0.064876785,-0.046174879,0.23206005,0.74379818,1.4023587,1.5420234,1.7688558999999997,2.1419398,2.183192,1.4657406000000002,0.72022853,0.37833634,-0.22055851,-2.0197096
1.0,0.32219993,-2.6345682999999998,-3.9478,-4.5238994,-4.148792,-2.8914568,-1.9352953000000002,-1.7248245999999998,-0.96241848,-0.23380033,-0.27274186,-0.21562270000000003,-0.21604464,-0.16953029,-0.21556794,-0.19987326,-0.20532349,-0.18821754,-0.29410384,-0.38978306,-0.22511899,-0.34113642,-0.32396247,-0.410271,-0.46504139,-0.49819586,-0.58403431,-0.51869357,-0.62815142,-0.73180305,-0.78233039,-0.84775879,-0.84232044,-0.87421781,-0.91952616,-0.89664494,-0.84183998,-0.79080708,-0.84079647,-0.70423228,-0.56916336,-0.60067735,-0.49008048,-0.43534404,-0.29915407,-0.15282836,-0.09537927199999999,-0.02625625,0.013287095,-0.022738685,0.12859099,0.12346262,0.15736312,0.26921771,0.19186653,0.30391663,0.30772076,0.26261076,0.24118951,0.31263913,0.39483654,0.40121355,0.49254002,0.47186924,0.45723102,0.57565757,0.52151777,0.58953774,0.74403799,0.6200669,0.7654258,0.77693952,0.72220492,0.66760947,0.72042713,0.63322527,0.65412673,0.70595142,0.61750366,0.57925413,0.53702804,0.55674155,0.44938102,0.46661746,0.47675986,0.47901655,0.41483541,0.40031777,0.28200276,0.42558142,0.38562739,0.39232853,0.33548049,0.23007112,0.26452131,0.1852566,0.19865597,0.15457419,0.35596514,0.50860613,0.79535649,1.1290268,1.3581882,1.5293374,1.7653223000000002,2.0966746,2.0118003,2.0211868,1.9360487000000002,1.6543193999999999,1.2868642,1.0587431999999999,0.71295737,0.13450783,-0.27418562,-0.31132016,-0.44147021,-0.51715896,-0.35971442,-0.46065127,-0.48534421,-0.47102536,-0.43063282,-0.43363588,-0.42217232,-0.39807557,-0.39430253,-0.44621821,-0.32625784,-0.1993849,0.17918625,1.1142943,1.0907046,0.9531542,0.65895027,0.22661503,0.16238349,0.18191132,1.4013569,-0.20378086
1.0,1.1074486000000001,-0.83920352,-2.7531677000000006,-3.6596592000000006,-4.488492900000001,-4.2090193,-2.8818302000000005,-1.9358107,-1.7887466,-0.86322252,-0.039060376,-0.15985647,-0.18103978,-0.14144061,-0.080959118,-0.072995508,-0.16892906,-0.18091229,-0.029673354,-0.35016516,-0.1512223,-0.25226782,-0.31878006,-0.28549959,-0.278794,-0.30924082,-0.39582976,-0.44101842,-0.44331896,-0.54526642,-0.616286,-0.53005153,-0.56838206,-0.71412203,-0.85163906,-0.82499841,-0.71753703,-0.7248241,-0.65470015,-0.57224816,-0.57398057,-0.56016236,-0.51245054,-0.54470574,-0.31470337,-0.17516431,-0.15945249,-0.11889086,0.026469898,-0.015611055,0.026690835,0.089163509,0.034904659,0.17344262,0.20320958,0.21236843,0.078738714,0.14469113,0.24982502,0.24056835,0.18171632,0.23078243,0.28345077,0.34604666,0.35078593,0.43820518,0.4629573,0.38947601,0.44198638,0.45166716,0.66436827,0.62260347,0.66276439,0.71169167,0.74747475,0.7128021999999999,0.62386931,0.70910986,0.75339512,0.62813484,0.72146407,0.63358442,0.55028092,0.44895712,0.498856,0.53231319,0.48576736,0.45682934,0.36414605,0.37683271,0.22851201,0.27082545,0.31742102,0.2770083,0.25115129,0.32267043,0.31386353,0.19869853,0.27923698,0.46009703,0.65541483,0.95480139,1.1856902,1.3028132,1.3617171000000001,1.511898,1.9420334,2.2184567000000004,2.150225,1.9215983,1.5388826999999998,1.3164584,1.0100055000000001,0.65999664,0.081123554,-0.3726434,-0.65381593,-0.67003851,-0.69900891,-0.72758705,-0.51987996,-0.5841469,-0.51971478,-0.58609514,-0.63566741,-0.73378368,-0.64361883,-0.45218217,-0.48163746,-0.54654658,-0.31573662,0.44010911,0.89847485,1.2217327,1.5601788,1.3209038999999998,1.1742413999999999,-0.052122321,-0.16085789,-0.065664896
1.0,-1.4269827,-4.148268700000001,-4.526609,-4.393101799999999,-3.3524866,-2.1812204,-1.6449994,-1.4088778999999998,-0.44111304,-0.24529291,-0.30574250000000003,-0.32315282,-0.22090808,-0.27864649,-0.25573214,-0.22557522,-0.22391917,-0.25070788,-0.29997572,-0.27295397,-0.28633432,-0.28276059,-0.31588767,-0.38355984,-0.35352926,-0.46664678,-0.38522774,-0.54351214,-0.59002443,-0.66689612,-0.73757484,-0.76121785,-0.7462089,-0.87007306,-0.84775569,-0.85964836,-0.85412669,-0.8238481,-0.73943797,-0.78501267,-0.69447704,-0.55331299,-0.46798696,-0.43378884,-0.30511969,-0.25895244,-0.13125205,-0.09579004599999999,0.023262675,0.054322796,0.096382516,0.1706753,0.075251304,0.057391147,0.16469655,0.19493714,0.20213344,0.21949761,0.21778925,0.28636103,0.34459152,0.23391017,0.29517296,0.33786801,0.40923212,0.41972245,0.56541498,0.59066697,0.61809505,0.53672919,0.57618666,0.70744936,0.72589956,0.74103493,0.69184032,0.65937551,0.6284064,0.76829499,0.66614966,0.61659837,0.53474183,0.57455843,0.62960826,0.52607082,0.44355295,0.45958478,0.47047715,0.51279635,0.50718472,0.41345563,0.41319254,0.42761474,0.32868137,0.40212838,0.3249062,0.39856767,0.36025444,0.47107478,0.67176663,0.86239422,1.1411774,1.2275326000000002,1.3588163,1.6217688,1.7619116999999997,1.7431233,1.6467772,1.5499198,1.4164311,1.1678341,0.93287047,0.55856442,0.22736745,-0.10601787,-0.12830009,-0.22735770000000002,-0.30062811,-0.24581572,-0.25710662,-0.26080455,-0.23103185,-0.24832322,-0.29254361,-0.22907311,-0.17760278,-0.22577022,-0.24102519,-0.12814316,-0.09933039099999999,0.27071251,0.88898156,1.0661353,0.96232172,0.86669908,0.96286933,0.87099444,0.85951743,0.86619994,0.72530393,-2.256678
1.0,0.85885584,-1.2550563,-2.6495385,-3.6262905,-4.4296121,-4.3061273,-2.9690448,-1.8737622999999999,-1.7226731,-0.74329012,-0.12753661,-0.24490140000000002,-0.32553451,-0.34668031,-0.28670993,-0.33664987,-0.15211448,-0.32018978,-0.21070384,-0.35094709999999996,-0.34134677,-0.38645735,-0.34234256,-0.42756592,-0.46362692,-0.49950118,-0.6321793000000001,-0.64473456,-0.6343745,-0.8072264,-0.95185638,-0.81788108,-0.84892644,-0.96976895,-1.0183461999999999,-0.97601034,-1.0417370000000001,-1.0755513,-1.0372584,-1.012983,-0.85635499,-0.82297476,-0.72449637,-0.64967985,-0.58195548,-0.37501748,-0.39100718,-0.30480009999999996,-0.27957133,-0.15248484,-0.1842422,-0.044270122,-0.045568211,-0.17120915,-0.12706101,-0.18661466,-0.14772796,-0.06622191200000001,-0.064176491,-0.011670763,-0.0029823553999999996,-0.047663682,0.011474493,-0.0058558254,0.24362109,0.19567771,0.25931329999999997,0.21286446,0.25320404,0.34266232,0.40381319,0.57668615,0.49228753,0.65236434,0.60495862,0.67092291,0.59009,0.66188929,0.65364966,0.62548727,0.6449083000000001,0.62648333,0.60221431,0.56506959,0.48416723,0.54124074,0.46700602,0.33271212,0.56803256,0.37194825,0.45767129999999995,0.42685569,0.42251938,0.25592421,0.3517617,0.41193044,0.42178351,0.3623087,0.43731189,0.45346448,0.43371011,0.41422548,0.48750429999999995,0.47627189,0.58870255,0.92192407,0.9960906999999999,1.2747667,1.6255427,1.5025877,1.2632133999999997,1.1404569,0.95372242,1.0248414000000001,1.1209752,0.84553278,0.53037572,0.22790713,0.0058925795,-0.01894389,0.029744581000000003,-0.026191786,0.07846057299999999,0.09654032300000001,0.010431705,0.064296956,0.16533544,0.10752218,0.15544056,0.17040863,0.28935674,0.70012823,1.6207623,1.6133123999999999,1.7641315,2.0138093999999995,1.9185693,1.4822615,0.72186897,1.1440188999999998
1.0,-0.88208927,-2.5597673,-3.4411110000000003,-3.9718354,-3.7537154000000004,-3.2506536,-2.0554792,-1.4779624,-1.4066393,-0.86612765,-0.56661392,-0.53599514,-0.48004276,-0.47648859999999993,-0.52644753,-0.5370746999999999,-0.48678048,-0.52022444,-0.53616251,-0.47970439,-0.58557517,-0.55381286,-0.53895455,-0.56262885,-0.56635413,-0.63872954,-0.63533776,-0.67556807,-0.7240473000000001,-0.71420289,-0.71996351,-0.81304249,-0.76367472,-0.87040718,-0.88729073,-0.89606555,-0.97844914,-0.8906976000000001,-0.89663405,-0.84427468,-0.75759712,-0.80968982,-0.76019716,-0.54861901,-0.56095651,-0.41000378,-0.45758167,-0.37322954,-0.23851034,-0.23525312,-0.14253805,-0.17135604,-0.10726611,-0.04537148,-0.14203386,-0.11071476,-0.0033954481,-0.028756382999999996,-0.056162036,-0.05378756,-0.02162882,0.012790873000000001,-0.018583697,0.07064741599999999,0.04463065,0.037294722999999995,0.14685116,0.12680811,0.12866942,0.18743556,0.15318559,0.20609399,0.26666847,0.32211733,0.35781678,0.35456278,0.36439798,0.38669663,0.46516933,0.41745658,0.48335662,0.3904548,0.46377189,0.48803233,0.43559849,0.46156465,0.46755509,0.43375791,0.44545467,0.45268639,0.51431252,0.52243763,0.65574801,0.88073305,0.94748257,1.0799433,1.1759525,1.3015801000000002,1.4879153,1.6819370999999999,1.6959638,1.7251988,1.6625547999999999,1.5759666,1.4615926000000001,1.3492136000000001,1.2049937,1.0351139,0.78514665,0.5100760999999999,0.26533986,0.24300023,0.23212683,0.28600967,0.22900645,0.23295479,0.26557019,0.23900811,0.28889901,0.27990945,0.19754949,0.29263297,0.36772046,0.27579595,0.31396072,0.30818173,0.52467831,0.89317519,1.1694898,1.2140787,1.1555476999999998,1.0908166000000001,1.1137322,1.1184983,1.2845373,1.3931466000000001,1.6390771,1.339409,0.54067962,-1.0000632
